Index,Snore_Data,RED,IR
1,-15,23308,27650
2,14,23305,27647
3,-45,23309,27648
4,63,23308,27654
5,-114,23306,27656
6,166,23305,27663
7,-263,23309,27665
8,378,23311,27676
9,-589,23311,27681
10,966,23317,27688
11,-1801,23322,27693
12,11099,23328,27705
13,17960,23326,27715
14,15857,23328,27718
15,16392,23337,27729
16,15911,23331,27728
17,14317,23325,27715
18,13499,23310,27677
19,15044,23285,27618
20,14890,23259,27556
21,15842,23237,27511
22,14984,23225,27475
23,14531,23211,27439
24,14726,23206,27420
25,12980,23199,27412
26,11331,23203,27405
27,12294,23203,27404
28,11926,23206,27406
29,11290,23212,27423
30,10713,23217,27429
31,7217,23215,27442
32,6264,23220,27451
33,6206,23226,27466
34,2754,23227,27478
35,4098,23235,27480
36,1836,23237,27492
37,1204,23236,27500
38,1286,23247,27506
39,-1138,23249,27514
40,-2054,23253,27522
41,-3372,23257,27538
42,-4212,23260,27548
43,-5000,23272,27553
44,-7101,23269,27570
45,-6881,23270,27577
46,-8463,23276,27584
47,-9679,23275,27577
48,-10047,23274,27576
49,-10008,23272,27578
50,-11411,23277,27564
51,-11932,23272,27562
52,-12953,23268,27554
53,-16093,23264,27556
54,-16578,23264,27553
55,-17194,23265,27551
56,-17520,23269,27555
57,-18667,23269,27560
58,-20049,23270,27568
59,-22055,23278,27570
60,-22831,23278,27577
61,-23757,23279,27582
62,-24242,23284,27596
63,-23384,23290,27601
64,-25757,23294,27605
65,-25581,23291,27615
66,-26390,23291,27623
67,-27493,23296,27638
68,-27863,23306,27639
69,-29888,23305,27651
70,-31325,23304,27658
71,-32436,23312,27662
72,31151,23317,27668
73,29448,23317,27669
74,27825,23317,27681
75,27288,23324,27688
76,26286,23325,27690
77,24375,23323,27696
78,23078,23334,27699
79,23024,23331,27706
80,22251,23329,27711
81,22026,23331,27716
82,22191,23331,27720
83,21171,23336,27726
84,21677,23335,27733
85,20608,23344,27731
86,20351,23340,27739
87,21730,23341,27742
88,21545,23345,27749
89,19775,23347,27753
90,18641,23350,27759
91,16843,23352,27766
92,16143,23360,27776
93,14837,23363,27783
94,11881,23366,27794
95,10547,23369,27806
96,9199,23370,27808
97,9248,23369,27801
98,9243,23353,27771
99,7605,23332,27714
100,7371,23305,27644
101,8430,23283,27587
102,7944,23261,27538
103,7721,23250,27503
104,20187,23237,27471
105,19989,23232,27451
106,19790,23229,27440
107,20769,23222,27426
108,21163,23228,27429
109,22227,23224,27430
110,21843,23229,27438
111,20902,23234,27444
112,20570,23237,27455
113,19942,23244,27468
114,19713,23247,27479
115,19497,23257,27486
116,19242,23255,27490
117,20177,23254,27500
118,20218,23255,27506
119,18286,23259,27507
120,-28817,23265,27516
121,-29318,23267,27524
122,-30631,23271,27537
123,-31498,23274,27547
124,-31997,23280,27557
125,32356,23284,27568
126,31727,23285,27577
127,30952,23288,27577
128,29637,23285,27580
129,28446,23287,27577
130,27080,23282,27576
131,26487,23282,27565
132,27005,23278,27562
133,26553,23278,27555
134,26700,23277,27552
135,25343,23273,27544
136,24456,23274,27541
137,24443,23274,27547
138,24507,23272,27547
139,25058,23280,27548
140,25618,23280,27555
141,24887,23277,27567
142,24612,23282,27576
143,24067,23286,27575
144,22646,23288,27586
145,23339,23289,27593
146,21973,23298,27601
147,20047,23302,27608
148,19242,23304,27617
149,19787,23306,27635
150,19749,23311,27640
151,18685,23312,27650
152,31005,23316,27659
153,29213,23322,27667
154,29778,23321,27678
155,28980,23327,27674
156,27112,23331,27688
157,26344,23337,27696
158,25238,23342,27707
159,24904,23340,27710
160,23921,23348,27718
161,23140,23350,27732
162,23219,23349,27734
163,22935,23352,27743
164,22133,23353,27750
165,19917,23356,27759
166,20052,23357,27762
167,20690,23362,27761
168,20187,23367,27770
169,19989,23365,27771
170,19790,23369,27778
171,20769,23372,27776
172,21163,23375,27784
173,22227,23375,27799
174,21843,23374,27804
175,20902,23383,27806
176,20570,23380,27816
177,19942,23384,27825
178,19713,23384,27836
179,19497,23393,27837
180,19242,23396,27838
181,20177,23387,27825
182,20218,23373,27790
183,18286,23352,27724
184,19554,23326,27657
185,20471,23299,27607
186,20485,23283,27562
187,19946,23269,27530
188,19493,23259,27508
189,20226,23251,27497
190,21395,23248,27491
191,21491,23256,27484
192,20598,23255,27485
193,18422,23256,27490
194,17358,23261,27502
195,15951,23267,27511
196,14201,23273,27519
197,13330,23273,27535
198,11269,23276,27546
199,12092,23278,27558
200,22132,23287,27556
201,21052,23283,27570
202,20994,23285,27576
203,20804,23294,27577
204,19016,23295,27583
205,17817,23291,27589
206,16249,23299,27602
207,15327,23304,27602
208,16296,23301,27609
209,16119,23300,27622
210,14362,23308,27620
211,12755,23307,27622
212,14249,23301,27617
213,16499,23304,27620
214,17425,23300,27618
215,16776,23301,27607
216,-25824,23297,27603
217,-25787,23294,27599
218,-26322,23295,27597
219,-26681,23293,27591
220,-25789,23297,27593
221,-25630,23289,27593
222,-24944,23292,27598
223,-25044,23288,27604
224,-25656,23297,27604
225,-25934,23296,27613
226,-25381,23296,27620
227,-25007,23298,27626
228,-25391,23306,27630
229,-25446,23311,27640
230,-25805,23313,27649
231,-25454,23318,27660
232,-25999,23322,27668
233,-26142,23325,27678
234,-26743,23323,27685
235,-27383,23332,27694
236,-27516,23338,27707
237,-28478,23337,27708
238,-28780,23337,27724
239,-28387,23346,27730
240,-27929,23347,27738
241,-27932,23352,27742
242,-27784,23357,27752
243,-27458,23356,27760
244,-28157,23357,27761
245,-27263,23362,27770
246,-27762,23363,27776
247,-28129,23368,27786
248,21024,23370,27789
249,23975,23375,27797
250,24057,23377,27805
251,23290,23376,27810
252,19579,23376,27814
253,20521,23380,27815
254,21202,23381,27826
255,21076,23382,27826
256,23615,23387,27839
257,23337,23393,27839
258,20973,23395,27848
259,16923,23393,27858
260,13856,23401,27864
261,13624,23408,27870
262,14796,23405,27871
263,20041,23404,27874
264,22132,23400,27859
265,21052,23378,27816
266,20994,23355,27757
267,20804,23329,27693
268,19016,23310,27638
269,17817,23292,27594
270,16249,23279,27566
271,15327,23275,27548
272,16296,23268,27534
273,16119,23273,27523
274,14362,23271,27526
275,12755,23271,27535
276,14249,23273,27543
277,16499,23282,27554
278,17425,23286,27563
279,16776,23289,27582
280,14857,23297,27596
281,14522,23303,27606
282,13308,23308,27618
283,15375,23313,27622
284,17305,23315,27635
285,16149,23315,27641
286,13910,23318,27644
287,12862,23318,27655
288,12214,23321,27672
289,13842,23330,27677
290,12943,23333,27688
291,12841,23336,27697
292,12948,23343,27703
293,10504,23341,27701
294,9183,23339,27701
295,7537,23339,27695
296,785,23336,27700
297,434,23330,27688
298,-789,23329,27680
299,-2260,23325,27676
300,-1045,23321,27674
301,-1959,23322,27666
302,266,23323,27663
303,495,23326,27660
304,-659,23323,27665
305,-161,23321,27668
306,1406,23327,27668
307,422,23329,27680
308,543,23331,27680
309,-1015,23334,27692
310,-555,23338,27698
311,976,23340,27705
312,8547,23345,27714
313,8313,23345,27722
314,9360,23353,27727
315,10767,23355,27734
316,12737,23358,27743
317,13483,23363,27759
318,12329,23368,27766
319,13549,23368,27776
320,14235,23373,27783
321,14504,23373,27794
322,15006,23375,27801
323,14854,23382,27800
324,16321,23383,27813
325,16270,23385,27819
326,14392,23389,27819
327,13810,23390,27826
328,13811,23391,27825
329,14370,23390,27839
330,15553,23391,27843
331,15630,23395,27849
332,16241,23400,27852
333,15340,23398,27858
334,14967,23396,27864
335,15768,23406,27860
336,14085,23407,27867
337,14330,23405,27872
338,14858,23409,27879
339,16567,23412,27878
340,16047,23407,27868
341,15524,23393,27847
342,16338,23373,27801
343,16522,23349,27747
344,-773,23332,27685
345,1920,23308,27641
346,1067,23293,27611
347,2135,23289,27578
348,983,23278,27564
349,2030,23275,27548
350,1983,23273,27548
351,3638,23273,27541
352,3556,23277,27551
353,3951,23277,27554
354,943,23278,27568
355,937,23287,27581
356,1198,23294,27587
357,2092,23295,27603
358,4455,23294,27612
359,3981,23310,27620
360,3738,23305,27622
361,4767,23310,27629
362,6130,23308,27641
363,7804,23316,27646
364,7443,23320,27656
365,7537,23317,27662
366,9774,23328,27677
367,10468,23332,27687
368,10710,23335,27686
369,10888,23329,27688
370,10539,23329,27684
371,9482,23327,27681
372,8937,23323,27671
373,8083,23320,27666
374,8250,23321,27653
375,9456,23317,27653
376,9563,23310,27646
377,10544,23306,27642
378,11499,23307,27640
379,12115,23310,27643
380,13415,23308,27644
381,13691,23313,27648
382,13554,23311,27654
383,12165,23317,27657
384,12023,23319,27665
385,12243,23319,27672
386,12578,23321,27676
387,12336,23321,27681
388,11052,23328,27689
389,9195,23332,27696
390,10077,23328,27703
391,10570,23338,27704
392,10673,23335,27711
393,14748,23340,27719
394,13391,23342,27727
395,14173,23342,27734
396,15229,23348,27739
397,14748,23343,27742
398,13738,23345,27750
399,15447,23353,27756
400,11090,23357,27758
401,10902,23351,27759
402,9909,23354,27768
403,10649,23360,27772
404,10024,23363,27776
405,10527,23361,27781
406,8176,23363,27788
407,11091,23369,27792
408,3271,23370,27793
409,3251,23367,27801
410,537,23370,27806
411,2145,23366,27794
412,130,23357,27766
413,1179,23340,27728
414,1112,23319,27681
415,-231,23294,27628
416,1077,23284,27586
417,797,23272,27555
418,-1325,23260,27530
419,99,23250,27511
420,-1872,23249,27499
421,-2147,23248,27492
422,-1408,23245,27490
423,-2504,23248,27492
424,1621,23248,27495
425,-1800,23251,27499
426,-182,23251,27509
427,-820,23253,27519
428,-968,23260,27522
429,595,23260,27527
430,2959,23264,27534
431,3388,23268,27544
432,3814,23271,27551
433,3282,23267,27559
434,3897,23277,27562
435,4221,23275,27577
436,8056,23279,27586
437,9044,23285,27593
438,10038,23285,27608
439,8871,23289,27616
440,17004,23293,27615
441,16521,23297,27614
442,16970,23294,27613
443,16842,23290,27613
444,15273,23283,27606
445,14130,23282,27598
446,14145,23280,27588
447,14221,23270,27577
448,11874,23260,27566
449,9617,23255,27540
450,9998,23248,27531
451,11004,23238,27508
452,10788,23227,27492
453,13779,23226,27483
454,13598,23220,27477
455,12356,23218,27481
456,12260,23220,27481
457,11437,23227,27493
458,10708,23228,27497
459,12841,23229,27505
460,11086,23229,27501
461,12514,23230,27502
462,11568,23226,27494
463,11537,23221,27476
464,7482,23213,27466
465,10163,23206,27457
466,8667,23203,27450
467,11981,23203,27444
468,9001,23197,27440
469,8235,23195,27439
470,9194,23193,27436
471,11772,23193,27437
472,11391,23192,27436
473,16011,23199,27435
474,10971,23194,27429
475,14230,23195,27424
476,12028,23188,27418
477,12397,23183,27406
478,13912,23175,27390
479,10930,23156,27377
480,12498,23152,27364
481,14615,23145,27353
482,12311,23145,27341
483,12345,23143,27338
484,14740,23141,27339
485,14820,23146,27344
486,13783,23145,27354
487,14229,23146,27361
488,25934,23144,27350
489,25797,23136,27333
490,28357,23126,27302
491,23921,23115,27271
492,31201,23101,27241
493,24671,23090,27211
494,-20539,23078,27183
495,4911,23069,27165
496,-12739,23068,27151
497,22672,23064,27140
498,25128,23056,27136
499,-21526,23063,27136
500,31321,23061,27147
501,16288,23066,27159
502,31351,23073,27165
503,-29847,23077,27179
504,27224,23085,27192
505,28104,23091,27204
506,28410,23094,27213
507,25419,23096,27222
508,27996,23097,27232
509,24636,23108,27243
510,27724,23114,27253
511,25972,23115,27265
512,25360,23125,27280
513,24499,23125,27295
514,24526,23132,27306
515,24074,23138,27316
516,22826,23136,27329
517,19768,23142,27334
518,29993,23142,27332
519,23255,23138,27337
520,20904,23147,27331
521,17916,23143,27335
522,-23971,23139,27329
523,-24752,23139,27327
524,-23511,23144,27322
525,-21619,23140,27327
526,18412,23140,27330
527,-7555,23140,27330
528,11707,23142,27333
529,23776,23143,27335
530,-24117,23144,27343
531,10602,23153,27349
532,29989,23150,27363
533,29881,23154,27365
534,16828,23161,27371
535,15569,23164,27384
536,-16185,23165,27390
537,-31840,23170,27400
538,32597,23179,27407
539,-23761,23185,27417
540,24920,23183,27431
541,23372,23187,27438
542,31785,23189,27456
543,27459,23196,27457
544,-28495,23195,27468
545,32572,23200,27474
546,22117,23210,27486
547,29094,23213,27491
548,-28407,23215,27496
549,-21672,23215,27507
550,-21814,23218,27512
551,-27891,23226,27523
552,28480,23227,27529
553,-24434,23226,27541
554,31095,23225,27544
555,30541,23230,27550
556,22980,23233,27549
557,-26589,23232,27559
558,-23620,23237,27566
559,-29737,23240,27572
560,27032,23243,27578
561,-25780,23239,27580
562,-28544,23247,27586
563,-30093,23248,27592
564,-32113,23253,27591
565,32397,23242,27583
566,-31629,23235,27555
567,-24693,23221,27511
568,26096,23197,27467
569,28785,23183,27422
570,31724,23167,27386
571,29540,23160,27362
572,-30194,23153,27338
573,27409,23143,27324
574,25604,23141,27313
575,-32217,23142,27312
576,-30722,23144,27310
577,-28551,23140,27313
578,-22582,23153,27319
579,-32223,23147,27330
580,-22822,23151,27347
581,-25944,23159,27350
582,30184,23159,27359
583,-27039,23164,27370
584,-9234,23167,27379
585,-5187,23175,27383
586,-5753,23174,27389
587,-6014,23176,27397
588,-11131,23181,27411
589,-15228,23190,27419
590,-7106,23189,27431
591,3677,23193,27440
592,-2012,23192,27443
593,-3757,23194,27446
594,-5354,23195,27448
595,2801,23195,27446
596,12644,23195,27444
597,10646,23194,27438
598,8997,23193,27434
599,12408,23186,27431
600,-19850,23186,27425
601,-25463,23183,27424
602,-21179,23187,27419
603,-24607,23182,27421
604,32728,23181,27424
605,-29365,23185,27422
606,-22067,23183,27426
607,-19410,23186,27430
608,-20488,23192,27439
609,-20125,23196,27439
610,-15881,23198,27446
611,-15949,23196,27459
612,-19510,23202,27464
613,-15102,23207,27471
614,-15052,23205,27478
615,-16672,23208,27488
616,-10483,23211,27499
617,-23449,23217,27495
618,-14804,23221,27506
619,-18089,23222,27514
620,-14974,23230,27520
621,-19757,23232,27524
622,-20868,23232,27533
623,-23230,23234,27541
624,-11727,23239,27549
625,-17510,23236,27557
626,-15597,23239,27559
627,-14886,23241,27564
628,-19340,23241,27574
629,-21945,23250,27571
630,-24937,23251,27577
631,-19355,23252,27580
632,5655,23250,27592
633,1903,23257,27595
634,-4754,23260,27600
635,-3878,23258,27608
636,6560,23256,27610
637,1805,23253,27609
638,-2578,23252,27586
639,1587,23234,27560
640,9108,23220,27517
641,10438,23205,27465
642,5170,23188,27428
643,6529,23174,27392
644,2429,23166,27375
645,11174,23160,27355
646,-2568,23154,27339
647,3008,23153,27335
648,10560,23151,27337
649,-18436,23149,27343
650,16022,23156,27337
651,6177,23158,27349
652,-9851,23161,27357
653,-14925,23171,27365
654,-3494,23170,27372
655,5666,23174,27381
656,12972,23180,27393
657,-4510,23180,27393
658,3201,23184,27401
659,-6582,23185,27411
660,-8605,23189,27419
661,-6436,23194,27429
662,-10715,23193,27439
663,-4925,23202,27444
664,5584,23197,27462
665,-5769,23209,27465
666,-11742,23209,27468
667,-13524,23208,27467
668,-3484,23203,27465
669,7514,23204,27461
670,1218,23204,27456
671,-919,23197,27453
672,-1202,23194,27453
673,-7261,23192,27446
674,-10075,23190,27446
675,-10236,23192,27437
676,-16036,23193,27439
677,-4698,23193,27442
678,2495,23195,27442
679,-9291,23201,27448
680,21391,23200,27457
681,-32432,23202,27461
682,17548,23201,27469
683,8959,23204,27470
684,19527,23212,27480
685,30106,23216,27487
686,-32032,23214,27490
687,25312,23218,27499
688,25969,23227,27502
689,27808,23227,27505
690,13496,23222,27513
691,18697,23222,27520
692,24814,23229,27529
693,23175,23231,27531
694,23244,23227,27538
695,19520,23225,27540
696,11821,23235,27543
697,11547,23231,27548
698,-1794,23234,27554
699,22173,23241,27559
700,-3833,23244,27556
701,10056,23244,27567
702,27769,23247,27575
703,8935,23254,27581
704,-2464,23253,27587
705,380,23252,27591
706,16527,23258,27600
707,29772,23253,27606
708,10101,23260,27609
709,10816,23261,27609
710,15652,23264,27614
711,8067,23255,27604
712,5886,23249,27583
713,1508,23236,27550
714,6505,23215,27502
715,20491,23195,27459
716,12862,23181,27420
717,2891,23171,27389
718,2125,23157,27360
719,10377,23155,27338
720,26454,23148,27324
721,25586,23146,27319
722,19238,23143,27313
723,18090,23145,27315
724,16301,23150,27314
725,10113,23143,27324
726,5762,23149,27329
727,2934,23150,27337
728,19295,23154,27340
729,20775,23155,27347
730,21879,23158,27353
731,18998,23161,27355
732,14414,23159,27356
733,21167,23165,27366
734,26435,23162,27370
735,22306,23171,27375
736,12962,23170,27378
737,15762,23170,27395
738,24598,23176,27399
739,24469,23180,27405
740,15439,23178,27417
741,15636,23182,27417
742,-29894,23182,27418
743,11531,23183,27415
744,21391,23182,27411
745,-32432,23179,27408
746,17548,23174,27406
747,8959,23175,27398
748,19527,23173,27399
749,30106,23173,27398
750,-32032,23170,27400
751,25312,23171,27401
752,25969,23171,27402
753,27808,23176,27403
754,13496,23177,27407
755,18697,23180,27411
756,24814,23184,27415
757,23175,23186,27423
758,23244,23190,27428
759,19520,23185,27432
760,13955,23191,27440
761,20872,23189,27446
762,27844,23192,27456
763,-31759,23198,27457
764,-32180,23198,27470
765,29540,23203,27475
766,28040,23206,27479
767,23919,23210,27485
768,20374,23214,27493
769,22412,23215,27502
770,25396,23220,27506
771,26018,23216,27514
772,26564,23218,27515
773,23748,23217,27528
774,-32101,23224,27533
775,30423,23225,27531
776,-15498,23226,27537
777,-13753,23231,27540
778,-9118,23232,27546
779,-9527,23231,27546
780,-15383,23234,27550
781,-12750,23235,27557
782,-13600,23235,27564
783,-12226,23238,27569
784,-10280,23238,27572
785,-12320,23241,27584
786,-19136,23243,27581
787,-8478,23247,27589
788,-8110,23247,27589
789,-14847,23250,27592
790,-14659,23248,27586
791,-19886,23243,27571
792,-31134,23227,27541
793,-29424,23212,27500
794,-29780,23192,27461
795,-27557,23180,27423
796,29742,23171,27392
797,-26330,23157,27368
798,-29681,23153,27346
799,-30394,23150,27334
800,29382,23144,27323
801,-28787,23143,27320
802,-27416,23148,27319
803,-27469,23139,27324
804,-31066,23143,27329
805,-27889,23148,27333
806,-25002,23147,27340
807,-32433,23152,27342
808,-11496,23152,27345
809,-25822,23154,27349
810,26041,23153,27356
811,28913,23158,27360
812,-14869,23157,27362
813,-15745,23160,27368
814,-19507,23161,27373
815,-22379,23165,27388
816,-18830,23167,27390
817,-28141,23179,27402
818,29003,23175,27406
819,-29213,23182,27415
820,-20317,23178,27417
821,-21299,23179,27420
822,-22466,23177,27421
823,-28339,23178,27414
824,-8644,23177,27412
825,-8138,23175,27409
826,-21285,23172,27405
827,-25786,23174,27403
828,-17685,23175,27405
829,-1653,23172,27404
830,898,23173,27407
831,-7362,23179,27408
832,-10895,23174,27409
833,-6651,23178,27420
834,-9834,23184,27423
835,-17713,23185,27428
836,-20361,23185,27435
837,-11756,23190,27440
838,-7784,23195,27449
839,-7319,23190,27453
840,-15498,23196,27462
841,-13753,23198,27464
842,-9118,23204,27468
843,-9527,23203,27476
844,-15383,23210,27483
845,-12750,23214,27490
846,-13600,23213,27500
847,-12226,23215,27507
848,-10280,23221,27517
849,-12320,23225,27518
850,-19136,23223,27528
851,-8478,23226,27535
852,-8110,23226,27539
853,-14847,23232,27542
854,-14659,23228,27545
855,-19886,23232,27541
856,-8313,23235,27546
857,-12472,23229,27550
858,-9677,23233,27543
859,-9717,23228,27553
860,-14530,23235,27556
861,3004,23235,27553
862,-20198,23234,27557
863,11246,23237,27560
864,4652,23239,27565
865,-17086,23240,27570
866,-25931,23242,27580
867,-4365,23246,27585
868,1874,23246,27595
869,1591,23250,27605
870,-9983,23257,27611
871,2443,23254,27620
872,8581,23258,27617
873,15533,23253,27603
874,17975,23242,27571
875,12172,23228,27527
876,12481,23202,27485
877,15496,23187,27443
878,12208,23176,27411
879,8382,23163,27381
880,7159,23154,27362
881,1339,23148,27347
882,7955,23143,27333
883,10335,23144,27331
884,11322,23149,27333
885,9146,23153,27346
886,8184,23153,27349
887,10534,23158,27365
888,-6238,23161,27368
889,-6124,23163,27381
890,-488,23167,27387
891,292,23172,27392
892,12596,23166,27399
893,2808,23170,27402
894,-8314,23176,27403
895,-6004,23182,27409
896,4041,23176,27417
897,12722,23180,27430
898,18297,23185,27434
899,1724,23190,27445
900,11061,23192,27444
901,13810,23191,27453
902,-8278,23189,27456
903,-4070,23192,27448
904,523,23193,27447
905,5966,23186,27444
906,6100,23190,27440
907,-201,23186,27431
908,1624,23183,27429
909,7476,23182,27432
910,1874,23183,27430
911,4968,23182,27431
912,3192,23183,27432
913,5815,23184,27440
914,7208,23186,27444
915,4185,23192,27444
916,-1272,23190,27449
917,11462,23195,27454
918,3269,23196,27462
919,-1620,23200,27467
920,7800,23202,27476
921,11220,23199,27480
922,4874,23206,27487
923,9243,23204,27498
924,666,23210,27501
925,9019,23214,27506
926,2160,23217,27513
927,1766,23222,27518
928,-7084,23224,27524
929,17014,23227,27527
930,6670,23227,27540
931,-6838,23231,27551
932,13582,23233,27551
933,-6469,23238,27557
934,-7386,23234,27566
935,27595,23235,27568
936,12725,23244,27568
937,-16181,23244,27578
938,-15197,23243,27583
939,6502,23249,27585
940,22701,23248,27587
941,7603,23254,27589
942,2163,23252,27606
943,17528,23253,27602
944,3652,23254,27612
945,-4148,23259,27614
946,-2589,23259,27622
947,1130,23257,27625
948,17022,23261,27616
949,13164,23254,27600
950,-440,23236,27570
951,-3037,23228,27538
952,5025,23214,27494
953,19213,23198,27460
954,23448,23184,27437
955,17367,23178,27415
956,17907,23172,27402
957,18347,23169,27384
958,7241,23166,27382
959,7692,23164,27382
960,4978,23168,27381
961,4580,23167,27385
962,18962,23166,27393
963,14458,23180,27399
964,13102,23175,27402
965,13141,23178,27410
966,17935,23181,27415
967,18500,23186,27424
968,31844,23189,27427
969,30905,23192,27431
970,-30288,23196,27438
971,-28522,23192,27445
972,-32490,23196,27455
973,-30692,23199,27464
974,-27996,23205,27474
975,-27820,23204,27487
976,-31450,23207,27489
977,-31496,23210,27490
978,-29009,23209,27493
979,-29153,23212,27489
980,-30028,23207,27481
981,-32600,23203,27480
982,-32531,23195,27473
983,-28107,23197,27471
984,26197,23199,27461
985,17846,23194,27461
986,23691,23193,27456
987,22869,23193,27460
988,10529,23197,27460
989,9669,23195,27466
990,13095,23197,27475
991,19394,23205,27472
992,21002,23198,27483
993,18108,23205,27484
994,18516,23210,27495
995,26140,23210,27503
996,23047,23208,27511
997,21408,23214,27512
998,20706,23221,27515
999,25219,23221,27525
1000,24140,23216,27535
1001,20945,23223,27535
1002,19854,23228,27539
1003,23708,23231,27549
1004,22338,23233,27552
1005,18582,23235,27562
1006,23826,23241,27565
1007,26302,23238,27572
1008,24172,23239,27577
1009,17425,23243,27580
1010,19123,23244,27589
1011,22058,23248,27591
1012,27700,23243,27598
1013,24401,23250,27597
1014,18955,23252,27601
1015,15652,23246,27604
1016,22189,23252,27606
1017,17426,23253,27612
1018,15104,23251,27612
1019,18833,23255,27616
1020,30261,23259,27619
1021,26515,23261,27626
1022,21905,23263,27633
1023,29881,23265,27638
1024,32700,23267,27644
1025,30448,23267,27651
1026,31656,23269,27648
1027,32538,23270,27640
1028,31878,23257,27622
1029,31802,23239,27584
1030,32070,23224,27542
1031,-31911,23206,27505
1032,31844,23197,27470
1033,30905,23183,27436
1034,-30288,23176,27413
1035,-28522,23173,27395
1036,-32490,23168,27381
1037,-30692,23162,27377
1038,-27996,23163,27374
1039,-27820,23156,27373
1040,-31450,23159,27377
1041,-31496,23164,27379
1042,-29009,23166,27387
1043,-29153,23168,27392
1044,-30028,23167,27392
1045,-32600,23172,27396
1046,-32531,23169,27402
1047,-28107,23172,27403
1048,-29300,23179,27410
1049,31955,23176,27414
1050,-29632,23174,27420
1051,26615,23177,27422
1052,-24323,23180,27435
1053,18510,23186,27444
1054,-3956,23192,27450
1055,6393,23194,27457
1056,20230,23199,27460
1057,-1679,23195,27467
1058,29179,23195,27461
1059,-8172,23192,27459
1060,12471,23193,27461
1061,32244,23187,27447
1062,-18596,23186,27450
1063,20042,23192,27446
1064,22176,23185,27446
1065,20907,23182,27442
1066,-14571,23181,27449
1067,654,23187,27454
1068,-10823,23183,27453
1069,30155,23188,27458
1070,-5557,23189,27462
1071,-17545,23193,27463
1072,-30512,23194,27470
1073,-25191,23200,27470
1074,-30014,23203,27483
1075,-12294,23201,27482
1076,-5114,23207,27490
1077,-28845,23208,27496
1078,-32240,23212,27506
1079,-23569,23214,27511
1080,-20734,23215,27520
1081,-31137,23220,27521
1082,27027,23218,27528
1083,28073,23224,27540
1084,-28063,23227,27543
1085,-21201,23227,27550
1086,-29381,23229,27557
1087,-30077,23233,27563
1088,-25302,23235,27563
1089,-25676,23234,27574
1090,-26339,23235,27576
1091,-32307,23242,27582
1092,-32710,23237,27586
1093,-26269,23242,27584
1094,-28546,23243,27592
1095,-29957,23242,27597
1096,-26683,23250,27604
1097,-29516,23250,27603
1098,-31834,23247,27610
1099,-22586,23258,27611
1100,-27081,23255,27614
1101,-26682,23252,27620
1102,-26375,23259,27626
1103,-23485,23258,27631
1104,-26246,23259,27631
1105,-27925,23262,27641
1106,-24173,23266,27646
1107,-16113,23265,27655
1108,-25422,23267,27660
1109,-29770,23273,27663
1110,-19095,23273,27668
1111,-27156,23270,27662
1112,-9456,23266,27643
1113,-3457,23250,27610
1114,-18598,23233,27572
1115,-19668,23218,27532
1116,-11954,23206,27496
1117,-21482,23194,27462
1118,-27806,23181,27435
1119,-32325,23175,27416
1120,-23396,23175,27402
1121,-13330,23166,27402
1122,-21041,23166,27399
1123,-23596,23166,27397
1124,-25879,23169,27403
1125,-12259,23175,27408
1126,-17900,23173,27415
1127,-27404,23177,27420
1128,-27268,23180,27426
1129,-14715,23181,27431
1130,-17128,23186,27438
1131,-25089,23186,27441
1132,-21038,23186,27449
1133,-18439,23186,27454
1134,-21224,23187,27457
1135,-25474,23192,27463
1136,-22007,23195,27471
1137,-21249,23205,27482
1138,-18593,23206,27487
1139,-16095,23209,27497
1140,-20078,23210,27499
1141,-21231,23213,27500
1142,-19204,23210,27497
1143,-14195,23203,27498
1144,-24516,23206,27496
1145,-18738,23202,27490
1146,-16318,23201,27482
1147,-17325,23194,27476
1148,-21187,23193,27473
1149,-14276,23197,27472
1150,-11946,23191,27472
1151,32349,23194,27473
1152,4736,23197,27470
1153,-21786,23201,27474
1154,31063,23196,27477
1155,14991,23200,27487
1156,-7125,23201,27493
1157,28220,23204,27499
1158,32560,23209,27504
1159,-8384,23211,27510
1160,-7453,23215,27516
1161,9056,23219,27524
1162,5452,23218,27532
1163,-8263,23221,27538
1164,-1774,23226,27541
1165,109,23224,27551
1166,-11241,23230,27553
1167,-12175,23237,27562
1168,-14299,23233,27567
1169,-3983,23233,27577
1170,1208,23242,27578
1171,2045,23242,27582
1172,-7380,23242,27589
1173,3783,23245,27595
1174,10502,23244,27600
1175,-3568,23246,27602
1176,9379,23249,27609
1177,-20505,23249,27608
1178,-30947,23252,27611
1179,29945,23253,27613
1180,-10274,23257,27615
1181,24970,23256,27623
1182,-30212,23254,27625
1183,1763,23260,27631
1184,12837,23256,27638
1185,-5646,23261,27643
1186,-18209,23258,27645
1187,6616,23263,27652
1188,-13887,23268,27657
1189,-20525,23272,27665
1190,-17842,23273,27662
1191,-18400,23267,27661
1192,1008,23266,27645
1193,-1950,23250,27616
1194,-21665,23234,27573
1195,-21861,23221,27534
1196,-7831,23207,27500
1197,4967,23193,27471
1198,3380,23189,27448
1199,-10464,23186,27429
1200,-7725,23176,27417
1201,-6426,23172,27413
1202,-17830,23171,27411
1203,-22265,23169,27412
1204,-22908,23171,27415
1205,-14194,23174,27424
1206,-8164,23176,27434
1207,-9014,23179,27440
1208,723,23184,27442
1209,28911,23189,27454
1210,-25017,23191,27454
1211,4909,23195,27460
1212,21469,23195,27468
1213,-4442,23195,27469
1214,-15784,23202,27481
1215,10066,23203,27486
1216,-8535,23204,27490
1217,-11113,23210,27501
1218,-10107,23217,27515
1219,-14662,23215,27517
1220,9474,23219,27521
1221,5073,23214,27524
1222,-20207,23213,27521
1223,-18240,23213,27519
1224,-7453,23209,27514
1225,9056,23213,27508
1226,5452,23206,27504
1227,-8263,23208,27492
1228,-1774,23203,27497
1229,109,23203,27491
1230,-11241,23204,27488
1231,-12175,23200,27495
1232,-14299,23204,27496
1233,-3983,23203,27505
1234,1208,23205,27503
1235,2045,23208,27510
1236,-7380,23209,27516
1237,3783,23215,27523
1238,10502,23213,27532
1239,-3568,23219,27538
1240,-2880,23222,27540
1241,4632,23228,27548
1242,5698,23228,27556
1243,4836,23233,27562
1244,-950,23234,27563
1245,590,23240,27570
1246,6085,23239,27577
1247,4148,23238,27584
1248,7601,23243,27596
1249,3554,23246,27595
1250,1012,23246,27610
1251,8903,23244,27611
1252,-774,23251,27617
1253,-3152,23251,27620
1254,4929,23256,27626
1255,2252,23254,27632
1256,-16089,23259,27630
1257,1536,23257,27634
1258,14381,23257,27633
1259,25447,23261,27641
1260,1814,23263,27641
1261,7507,23264,27643
1262,20775,23262,27650
1263,-698,23262,27653
1264,-1438,23265,27666
1265,1577,23270,27658
1266,3423,23268,27666
1267,21303,23274,27674
1268,13585,23271,27680
1269,751,23274,27689
1270,2064,23277,27690
1271,7616,23280,27695
1272,-20376,23280,27695
1273,-15768,23275,27686
1274,-15668,23269,27660
1275,-7220,23254,27626
1276,6856,23233,27578
1277,-11031,23218,27537
1278,-17935,23206,27498
1279,-10009,23192,27473
1280,3975,23182,27446
1281,10865,23181,27431
1282,1114,23178,27419
1283,-684,23171,27411
1284,6341,23168,27415
1285,-2111,23174,27410
1286,-11303,23173,27416
1287,-11727,23176,27422
1288,-12743,23176,27435
1289,1344,23180,27441
1290,-2639,23186,27442
1291,-4694,23183,27452
1292,-1691,23187,27448
1293,-1763,23187,27456
1294,11010,23188,27454
1295,-973,23188,27460
1296,-4105,23193,27465
1297,1764,23196,27471
1298,7740,23197,27479
1299,1246,23203,27484
1300,1039,23205,27495
1301,-2588,23206,27499
1302,3337,23209,27511
1303,319,23213,27511
1304,22233,23212,27512
1305,18988,23209,27504
1306,8169,23208,27505
1307,14028,23208,27502
1308,12225,23201,27495
1309,5011,23198,27495
1310,1235,23202,27490
1311,821,23202,27491
1312,7826,23199,27485
1313,11635,23203,27488
1314,6190,23198,27489
1315,5132,23201,27493
1316,7934,23205,27495
1317,8479,23204,27497
1318,11305,23205,27505
1319,5870,23210,27511
1320,8010,23210,27517
1321,3591,23220,27519
1322,14149,23218,27526
1323,5912,23218,27538
1324,3635,23223,27539
1325,4233,23228,27549
1326,10143,23231,27558
1327,5665,23232,27565
1328,3606,23238,27568
1329,110,23234,27572
1330,9540,23236,27581
1331,4228,23240,27593
1332,1733,23244,27593
1333,8784,23244,27599
1334,-975,23245,27602
1335,10048,23241,27608
1336,9763,23250,27614
1337,2107,23253,27614
1338,6460,23253,27617
1339,7022,23255,27619
1340,967,23256,27626
1341,10203,23253,27626
1342,10914,23257,27629
1343,2802,23261,27637
1344,-6216,23258,27637
1345,350,23260,27640
1346,-28043,23260,27645
1347,28896,23261,27652
1348,15593,23259,27651
1349,-26987,23263,27656
1350,-158,23267,27662
1351,-25491,23262,27665
1352,10836,23269,27673
1353,-9876,23272,27673
1354,17851,23274,27684
1355,31455,23278,27683
1356,-27769,23279,27692
1357,11781,23286,27696
1358,21215,23279,27692
1359,31104,23272,27672
1360,11111,23260,27649
1361,12783,23243,27606
1362,15648,23224,27559
1363,17484,23212,27519
1364,30688,23195,27489
1365,17728,23190,27458
1366,5228,23178,27437
1367,8932,23178,27426
1368,18449,23171,27412
1369,10505,23164,27411
1370,11154,23166,27413
1371,17077,23170,27412
1372,22062,23174,27419
1373,14181,23173,27426
1374,26612,23180,27435
1375,10004,23185,27442
1376,27575,23186,27446
1377,14241,23183,27454
1378,16282,23187,27452
1379,-25057,23189,27459
1380,-17032,23189,27458
1381,-18037,23192,27465
1382,-31291,23194,27473
1383,1144,23191,27479
1384,-10516,23200,27483
1385,26078,23204,27495
1386,27450,23204,27500
1387,-30720,23204,27508
1388,7215,23206,27511
1389,27645,23206,27511
1390,26244,23206,27508
1391,11191,23203,27501
1392,15962,23204,27498
1393,17708,23198,27493
1394,22915,23198,27489
1395,-27705,23195,27487
1396,17057,23200,27484
1397,8402,23195,27486
1398,18114,23198,27482
1399,25368,23198,27485
1400,14612,23197,27487
1401,5055,23197,27491
1402,12204,23200,27493
1403,12668,23200,27505
1404,17356,23207,27509
1405,16176,23204,27514
1406,12015,23214,27518
1407,17174,23209,27526
1408,5653,23216,27533
1409,12183,23219,27538
1410,17032,23221,27541
1411,708,23227,27548
1412,-22007,23224,27554
1413,-9733,23228,27561
1414,18139,23230,27570
1415,-21469,23231,27582
1416,10836,23232,27588
1417,-9876,23239,27589
1418,17851,23241,27596
1419,31455,23247,27598
1420,-27769,23243,27607
1421,11781,23250,27608
1422,21215,23248,27612
1423,31104,23250,27618
1424,11111,23250,27622
1425,12783,23248,27620
1426,15648,23253,27631
1427,17484,23253,27633
1428,30688,23251,27635
1429,17728,23255,27642
1430,5228,23252,27642
1431,8932,23263,27644
1432,19218,23260,27646
1433,28427,23263,27649
1434,24521,23264,27654
1435,19270,23263,27661
1436,24038,23265,27663
1437,23010,23267,27664
1438,12597,23269,27670
1439,9750,23271,27679
1440,10926,23275,27686
1441,21930,23271,27688
1442,23904,23277,27687
1443,19622,23276,27696
1444,19009,23280,27705
1445,26242,23283,27712
1446,25289,23284,27711
1447,21813,23285,27702
1448,22209,23268,27677
1449,24862,23250,27635
1450,30992,23235,27583
1451,22639,23216,27540
1452,-29878,23198,27506
1453,26437,23187,27477
1454,22469,23181,27453
1455,28216,23177,27431
1456,31836,23173,27419
1457,24634,23170,27412
1458,31535,23168,27414
1459,27035,23169,27410
1460,32099,23171,27419
1461,25556,23173,27422
1462,-31239,23178,27431
1463,20508,23178,27443
1464,16983,23184,27452
1465,10581,23185,27460
1466,18764,23189,27465
1467,24485,23191,27466
1468,8545,23186,27468
1469,27355,23191,27475
1470,25311,23191,27481
1471,11440,23196,27484
1472,14205,23197,27495
1473,26900,23201,27492
1474,10009,23205,27502
1475,26929,23204,27509
1476,-32221,23213,27514
1477,-2776,23207,27518
1478,28616,23207,27519
1479,-22205,23208,27516
1480,10536,23202,27508
1481,-6201,23202,27503
1482,7592,23198,27504
1483,-27646,23199,27498
1484,-32543,23196,27495
1485,8262,23197,27492
1486,21983,23202,27499
1487,29682,23199,27490
1488,16476,23201,27499
1489,16897,23197,27499
1490,13485,23199,27503
1491,22783,23197,27507
1492,-32307,23205,27510
1493,19179,23207,27516
1494,10101,23212,27525
1495,8496,23215,27530
1496,22192,23220,27533
1497,29056,23217,27545
1498,-31955,23222,27551
1499,19709,23221,27554
1500,27956,23227,27559
1501,30912,23227,27565
1502,-29364,23226,27575
1503,13071,23230,27579
1504,-31626,23238,27585
1505,17648,23240,27591
1506,-15535,23238,27596
1507,16518,23243,27602
1508,-23868,23248,27608
1509,-25233,23247,27614
1510,-3283,23247,27620
1511,-8210,23252,27618
1512,-9359,23252,27624
1513,9169,23247,27631
1514,4598,23255,27633
1515,-32556,23262,27639
1516,-13627,23258,27639
1517,-25129,23258,27648
1518,23028,23259,27649
1519,-20538,23257,27658
1520,-19906,23260,27658
1521,17970,23263,27664
1522,28221,23262,27667
1523,22760,23262,27667
1524,-23351,23264,27671
1525,-20339,23264,27680
1526,30341,23269,27681
1527,22862,23274,27682
1528,30223,23277,27689
1529,-25578,23280,27695
1530,-15681,23278,27705
1531,-25780,23284,27705
1532,-32352,23284,27715
1533,-28768,23287,27714
1534,-27539,23283,27709
1535,20456,23274,27683
1536,20007,23255,27640
1537,24380,23237,27592
1538,30383,23217,27554
1539,-31604,23201,27515
1540,23642,23189,27482
1541,30770,23181,27455
1542,26270,23176,27437
1543,-32690,23170,27425
1544,-25905,23173,27417
1545,-30654,23167,27416
1546,-32166,23169,27412
1547,21075,23172,27418
1548,24376,23176,27430
1549,-32510,23181,27437
1550,-30779,23183,27444
1551,24239,23185,27460
1552,23176,23189,27463
1553,30225,23194,27467
1554,31508,23197,27475
1555,25596,23196,27474
1556,27603,23195,27486
1557,25982,23200,27488
1558,26157,23201,27496
1559,31147,23202,27499
1560,26542,23209,27518
1561,17323,23213,27524
1562,21284,23217,27531
1563,-13659,23213,27532
1564,-29767,23218,27531
1565,19329,23215,27532
1566,24894,23213,27524
1567,-26532,23208,27521
1568,-17467,23206,27511
1569,-14229,23203,27506
1570,-28958,23200,27504
1571,-21274,23202,27502
1572,-23211,23202,27497
1573,32299,23197,27502
1574,-31749,23203,27496
1575,26382,23203,27500
1576,-31638,23205,27504
1577,-21194,23203,27510
1578,-32534,23208,27513
1579,28326,23210,27521
1580,-17838,23211,27526
1581,-28080,23216,27531
1582,-22123,23215,27535
1583,-27106,23217,27542
1584,-22132,23224,27548
1585,-24888,23225,27556
1586,-17233,23228,27562
1587,-24007,23233,27567
1588,-27031,23238,27574
1589,-27115,23235,27586
1590,-30414,23241,27586
1591,-26862,23245,27594
1592,21345,23243,27600
1593,843,23246,27608
1594,3361,23248,27616
1595,-30935,23250,27617
1596,2790,23253,27625
1597,8763,23253,27629
1598,-25284,23259,27634
1599,-16526,23257,27637
1600,-21426,23257,27646
1601,27570,23259,27644
1602,-12971,23262,27649
1603,-32552,23259,27653
1604,27793,23267,27656
1605,28550,23269,27657
1606,25992,23265,27661
1607,-27942,23268,27663
1608,-23630,23270,27668
1609,25204,23274,27667
1610,28848,23272,27667
1611,28356,23275,27676
1612,-13060,23273,27676
1613,-17757,23277,27688
1614,-24992,23279,27688
1615,-23959,23284,27697
1616,-19285,23283,27700
1617,32078,23285,27708
1618,-29946,23284,27709
1619,28127,23282,27697
1620,-31199,23273,27669
1621,-25556,23253,27626
1622,31844,23234,27588
1623,31017,23218,27540
1624,-26642,23207,27505
1625,-31648,23193,27478
1626,-25669,23185,27458
1627,-27332,23182,27442
1628,-29817,23176,27430
1629,-25729,23175,27430
1630,-27784,23174,27425
1631,-27027,23176,27431
1632,-24490,23178,27436
1633,-26559,23181,27441
1634,-27719,23188,27452
1635,-27223,23187,27455
1636,-28159,23193,27470
1637,-25826,23197,27479
1638,-27100,23203,27482
1639,32732,23202,27486
1640,-23217,23201,27500
1641,-23802,23214,27507
1642,-17334,23209,27510
1643,-7064,23215,27519
1644,-9290,23216,27529
1645,-16989,23223,27536
1646,-15962,23222,27546
1647,-15808,23219,27549
1648,-22687,23226,27549
1649,-27812,23219,27544
1650,-26561,23219,27530
1651,-19892,23218,27522
1652,-18320,23211,27515
1653,-21772,23208,27506
1654,-23062,23202,27500
1655,-19963,23205,27490
1656,-29191,23203,27491
1657,-28536,23199,27491
1658,32013,23198,27492
1659,-29021,23201,27495
1660,-24372,23202,27493
1661,31337,23200,27497
1662,-31692,23206,27501
1663,-30873,23211,27511
1664,31601,23208,27514
1665,-27816,23213,27521
1666,32684,23220,27530
1667,-30461,23217,27538
1668,29901,23217,27544
1669,-32737,23228,27553
1670,-32767,23228,27552
1671,-29815,23230,27559
1672,28390,23229,27567
1673,-21551,23234,27573
1674,17729,23236,27582
1675,-29787,23237,27590
1676,28680,23245,27594
1677,6605,23244,27594
1678,-4718,23241,27601
1679,-25036,23244,27603
1680,8232,23249,27611
1681,9462,23252,27614
1682,-29752,23252,27614
1683,-18077,23256,27622
1684,-22106,23256,27626
1685,26244,23260,27629
1686,-21569,23259,27634
1687,31748,23262,27639
1688,-20015,23263,27642
1689,-22662,23263,27644
1690,-23948,23267,27656
1691,-22638,23269,27653
1692,-23683,23268,27661
1693,-20885,23273,27667
1694,-26754,23273,27673
1695,-23051,23275,27670
1696,-25663,23270,27665
1697,-23810,23258,27642
1698,-27709,23245,27601
1699,-24687,23225,27563
1700,-27581,23210,27520
1701,-25213,23198,27484
1702,-26415,23187,27457
1703,-27153,23178,27431
1704,-26673,23170,27410
1705,-27578,23162,27399
1706,-25560,23167,27391
1707,-27955,23160,27391
1708,-27814,23158,27391
1709,-21269,23167,27396
1710,-27100,23168,27404
1711,-20400,23170,27405
1712,-26517,23172,27416
1713,-26657,23177,27422
1714,-23691,23176,27427
1715,-26656,23183,27433
1716,-30245,23183,27434
1717,-21921,23184,27441
1718,27839,23183,27447
1719,-19819,23186,27446
1720,26252,23187,27451
1721,32624,23190,27465
1722,-29505,23197,27475
1723,-32233,23202,27483
1724,-27995,23207,27494
1725,-29746,23203,27493
1726,29760,23206,27496
1727,-14112,23203,27496
1728,19150,23201,27494
1729,28872,23200,27485
1730,-1408,23195,27479
1731,30459,23197,27475
1732,15970,23190,27471
1733,25351,23195,27464
1734,-25862,23189,27465
1735,-17229,23191,27464
1736,-19168,23193,27463
1737,-24043,23188,27469
1738,-29857,23191,27470
1739,-25469,23198,27479
1740,-18832,23200,27482
1741,-22915,23199,27490
1742,-19798,23203,27496
1743,-21928,23200,27498
1744,-30117,23206,27507
1745,-11603,23213,27514
1746,-29931,23215,27524
1747,-15860,23217,27527
1748,-22603,23219,27535
1749,-26682,23223,27539
1750,8330,23224,27546
1751,-17063,23231,27558
1752,-21784,23231,27565
1753,-23694,23234,27569
1754,-25324,23236,27572
1755,-20632,23231,27585
1756,-22128,23239,27586
1757,32513,23240,27590
1758,-17238,23240,27594
1759,-20906,23246,27597
1760,-25798,23247,27601
1761,-16667,23244,27609
1762,-22589,23245,27613
1763,-20361,23248,27617
1764,-17387,23250,27618
1765,-26469,23251,27621
1766,-7371,23254,27624
1767,-23925,23258,27632
1768,-27302,23258,27633
1769,-11097,23261,27639
1770,-614,23259,27638
1771,-28484,23265,27648
1772,-30280,23262,27656
1773,-25759,23271,27663
1774,-114,23273,27667
1775,-8225,23275,27669
1776,-16506,23275,27673
1777,-14634,23266,27656
1778,-14285,23256,27628
1779,-23136,23236,27580
1780,-25689,23216,27540
1781,-28522,23201,27497
1782,-19273,23188,27460
1783,-12836,23177,27432
1784,23968,23164,27411
1785,-25604,23163,27393
1786,-4126,23159,27382
1787,3147,23154,27383
1788,-5075,23157,27378
1789,-18016,23157,27382
1790,-1504,23160,27386
1791,-10912,23167,27396
1792,-20403,23168,27404
1793,-17579,23175,27411
1794,-19605,23170,27414
1795,-10263,23173,27416
1796,-10876,23177,27425
1797,-27344,23178,27426
1798,-23634,23178,27426
1799,-14965,23179,27435
1800,-2966,23182,27433
1801,-3511,23181,27438
1802,-10658,23189,27452
1803,-10182,23190,27461
1804,-7161,23195,27467
1805,-14910,23196,27474
1806,-18935,23200,27483
1807,-18533,23200,27479
1808,-13172,23196,27475
1809,-8619,23191,27480
1810,-17893,23192,27473
1811,-21535,23192,27472
1812,-17290,23186,27462
1813,-15480,23191,27455
1814,-16571,23184,27451
1815,-18733,23183,27455
1816,-18604,23185,27455
1817,-17498,23194,27459
1818,-17511,23191,27455
1819,-21219,23193,27461
1820,-19402,23191,27473
1821,-20194,23194,27473
1822,-17750,23200,27474
1823,-18792,23198,27485
1824,-19067,23205,27484
1825,-19947,23202,27496
1826,-19244,23203,27500
1827,-16806,23210,27510
1828,-20289,23208,27514
1829,-14609,23215,27520
1830,-21583,23214,27526
1831,-18669,23218,27527
1832,-13551,23225,27540
1833,-13570,23220,27542
1834,-12178,23227,27549
1835,-13837,23226,27555
1836,-14482,23231,27557
1837,-16287,23232,27559
1838,-15607,23231,27566
1839,-12730,23236,27570
1840,-15970,23231,27576
1841,-19489,23237,27578
1842,-16631,23234,27578
1843,-13656,23240,27584
1844,-17774,23234,27588
1845,-21605,23239,27591
1846,-12733,23241,27592
1847,-19427,23241,27595
1848,-17069,23240,27601
1849,-25248,23250,27602
1850,-13790,23246,27605
1851,-29768,23246,27611
1852,-16090,23251,27619
1853,-22500,23252,27622
1854,-5184,23257,27627
1855,22604,23254,27632
1856,-22888,23264,27632
1857,8289,23257,27627
1858,-14328,23249,27612
1859,22195,23240,27578
1860,31245,23221,27542
1861,-13703,23205,27505
1862,-180,23186,27463
1863,-16103,23180,27433
1864,-14704,23170,27408
1865,-6468,23161,27387
1866,-17874,23158,27376
1867,-21192,23151,27370
1868,-22159,23154,27366
1869,-16941,23153,27368
1870,-5296,23156,27373
1871,-9529,23157,27381
1872,-19987,23165,27393
1873,-21380,23167,27397
1874,-15133,23170,27407
1875,-1872,23173,27415
1876,-5458,23177,27417
1877,-11591,23178,27427
1878,-9641,23183,27429
1879,-9690,23184,27433
1880,-20237,23179,27441
1881,-12739,23186,27450
1882,-16566,23189,27461
1883,-18034,23193,27471
1884,-17533,23194,27477
1885,-17958,23199,27477
1886,-18477,23202,27486
1887,-18840,23197,27483
1888,-19515,23197,27477
1889,-22203,23196,27479
1890,-19242,23191,27473
1891,-15073,23195,27465
1892,-22261,23193,27462
1893,-20164,23191,27455
1894,-14140,23184,27457
1895,-7007,23186,27451
1896,23079,23188,27453
1897,-5832,23190,27459
1898,7953,23192,27459
1899,-15935,23192,27465
1900,26036,23193,27470
1901,-21831,23197,27474
1902,-6257,23197,27476
1903,-2288,23202,27481
1904,-22305,23206,27497
1905,-14252,23203,27503
1906,-9948,23206,27508
1907,-18647,23214,27513
1908,-21950,23218,27516
1909,-24070,23215,27529
1910,-17352,23221,27539
1911,-5747,23224,27542
1912,-13319,23222,27552
1913,-21067,23224,27554
1914,-21360,23230,27564
1915,-11561,23233,27569
1916,-6236,23234,27572
1917,-11013,23238,27583
1918,-14703,23238,27587
1919,-10547,23239,27591
1920,-15084,23239,27596
1921,-22907,23245,27601
1922,-27325,23241,27600
1923,-24547,23244,27606
1924,-16639,23249,27610
1925,-16372,23247,27613
1926,-19411,23246,27617
1927,-19466,23253,27618
1928,-2804,23251,27619
1929,-25189,23254,27622
1930,-15883,23254,27629
1931,-2821,23252,27640
1932,7119,23263,27639
1933,-2098,23260,27644
1934,-13119,23269,27649
1935,-2729,23263,27659
1936,-9581,23269,27660
1937,-17403,23275,27670
1938,-17256,23270,27671
1939,-17623,23273,27669
1940,-8614,23263,27650
1941,-7785,23253,27618
1942,-23663,23231,27570
1943,-21443,23215,27524
1944,-18353,23203,27487
1945,-11794,23189,27450
1946,-15662,23174,27427
1947,-23282,23169,27399
1948,-14841,23160,27391
1949,-19402,23155,27380
1950,-13678,23151,27372
1951,-23715,23155,27376
1952,-13177,23160,27379
1953,-13819,23154,27381
1954,-25196,23158,27391
1955,-6632,23168,27401
1956,-13956,23160,27405
1957,-27232,23168,27406
1958,-22429,23176,27410
1959,-9526,23173,27415
1960,-5999,23170,27415
1961,-13601,23173,27421
1962,-19697,23176,27420
1963,-10418,23172,27422
1964,-15745,23175,27427
1965,-23817,23181,27438
1966,-18642,23185,27444
1967,-19800,23186,27452
1968,-13223,23186,27461
1969,-15263,23192,27464
1970,-22617,23195,27462
1971,-21827,23194,27464
1972,-17794,23192,27461
1973,-11127,23186,27456
1974,-10061,23187,27456
1975,-14003,23182,27451
1976,-10969,23183,27445
1977,-10262,23186,27448
1978,-6630,23176,27444
1979,-11264,23185,27446
1980,-11597,23181,27446
1981,-4421,23185,27451
1982,-4628,23184,27456
1983,-2173,23184,27453
1984,-4961,23192,27460
1985,-7600,23190,27469
1986,-1667,23193,27476
1987,-11201,23196,27479
1988,-724,23198,27484
1989,-7848,23200,27490
1990,-19379,23203,27503
1991,10116,23206,27511
1992,-2804,23208,27516
1993,-25189,23213,27518
1994,-15883,23218,27531
1995,-2821,23219,27536
1996,7119,23220,27541
1997,-2098,23219,27544
1998,-13119,23225,27550
1999,-2729,23224,27562
2000,-9581,23232,27567
2001,-17403,23233,27566
2002,-17256,23232,27571
2003,-17623,23231,27576
2004,-8614,23227,27581
2005,-7785,23237,27580
2006,-23663,23242,27588
2007,-21443,23238,27591
2008,-11689,23244,27590
2009,-7905,23241,27595
2010,-6338,23245,27597
2011,-13278,23241,27603
2012,-12932,23250,27600
2013,-13861,23252,27609
2014,-18438,23246,27614
2015,-23251,23247,27617
2016,-21556,23253,27618
2017,-19024,23250,27625
2018,-20242,23256,27632
2019,-22609,23260,27642
2020,-18664,23258,27644
2021,-19790,23261,27644
2022,-17468,23269,27657
2023,-17322,23269,27661
2024,-11389,23269,27659
2025,-13643,23262,27650
2026,-18135,23251,27626
2027,-19851,23242,27584
2028,-17422,23218,27550
2029,-17105,23209,27509
2030,-19264,23193,27477
2031,-19878,23187,27449
2032,-17940,23177,27425
2033,-13940,23170,27409
2034,-13089,23166,27393
2035,-15794,23165,27391
2036,-13160,23165,27389
2037,-12330,23166,27396
2038,-13534,23170,27398
2039,-12359,23168,27410
2040,-5531,23174,27417
2041,-3771,23177,27428
2042,-9055,23182,27433
2043,-2591,23176,27442
2044,-12312,23181,27443
2045,-5592,23184,27451
2046,6844,23186,27453
2047,-5315,23185,27453
2048,-19535,23190,27464
2049,-8083,23194,27471
2050,1477,23195,27480
2051,4858,23200,27489
2052,-7960,23203,27491
2053,-7047,23206,27503
2054,1043,23206,27497
2055,-4693,23205,27498
2056,-12920,23204,27495
2057,-15331,23200,27491
2058,-10872,23200,27481
2059,-2739,23196,27479
2060,-8683,23192,27477
2061,-16409,23189,27470
2062,-11901,23192,27471
2063,-3591,23194,27471
2064,1524,23190,27467
2065,-2612,23190,27474
2066,-7386,23194,27477
2067,-4968,23194,27476
2068,-4482,23195,27483
2069,-10616,23201,27485
2070,-16574,23199,27487
2071,-13329,23206,27496
2072,-16129,23202,27502
2073,-12221,23209,27509
2074,-7396,23210,27517
2075,-7111,23212,27519
2076,-9341,23212,27523
2077,-9780,23221,27529
2078,-10952,23216,27538
2079,-14001,23223,27540
2080,-16846,23224,27553
2081,-16996,23225,27558
2082,-14038,23229,27563
2083,-12335,23231,27564
2084,-12286,23233,27578
2085,-10748,23235,27580
2086,-11315,23240,27584
2087,-7499,23240,27586
2088,-10064,23241,27593
2089,-9905,23243,27600
2090,-9104,23243,27596
2091,-7689,23244,27610
2092,-9615,23248,27608
2093,-6209,23244,27613
2094,-8925,23247,27612
2095,-7080,23251,27623
2096,-7151,23251,27624
2097,-8164,23250,27626
2098,-8323,23255,27635
2099,-6862,23255,27637
2100,-9608,23260,27638
2101,-1887,23256,27645
2102,-12000,23267,27653
2103,-6471,23263,27659
2104,-4901,23269,27654
2105,-5827,23266,27661
2106,-3249,23266,27652
2107,-1860,23255,27631
2108,-9161,23241,27589
2109,-4834,23225,27557
2110,-1013,23209,27515
2111,-9402,23199,27481
2112,-804,23184,27453
2113,509,23179,27441
2114,-10528,23176,27414
2115,-13508,23168,27404
2116,-10016,23162,27392
2117,-4159,23165,27390
2118,-205,23164,27388
2119,-7666,23161,27399
2120,-11340,23168,27401
2121,-9705,23175,27413
2122,-12895,23176,27419
2123,-9860,23175,27429
2124,-11844,23175,27431
2125,-7855,23180,27438
2126,-11429,23180,27441
2127,-14494,23183,27442
2128,-13617,23187,27447
2129,-5661,23186,27453
2130,-6915,23187,27458
2131,-7603,23190,27462
2132,-9038,23195,27475
2133,-8098,23196,27483
2134,-8720,23196,27489
2135,-9554,23198,27494
2136,-11580,23203,27495
2137,-8778,23202,27497
2138,-11458,23205,27492
2139,-10712,23202,27488
2140,-10240,23197,27482
2141,-12382,23199,27480
2142,-11197,23196,27477
2143,-16152,23189,27472
2144,-13705,23191,27477
2145,-15209,23192,27470
2146,-18035,23193,27476
2147,-11166,23200,27478
2148,-15535,23200,27483
2149,-13930,23199,27487
2150,-8556,23204,27490
2151,-13146,23203,27493
2152,-16117,23201,27504
2153,-9980,23207,27509
2154,-14475,23212,27520
2155,-15970,23214,27518
2156,-9628,23212,27532
2157,-16431,23222,27535
2158,-18951,23218,27539
2159,-19973,23225,27550
2160,-12698,23221,27556
2161,-8460,23229,27566
2162,-8264,23232,27573
2163,-10250,23229,27571
2164,-8934,23235,27579
2165,-9947,23239,27593
2166,-8645,23239,27592
2167,-10045,23242,27594
2168,-9596,23245,27603
2169,-9120,23243,27605
2170,-6875,23249,27612
2171,-7538,23251,27612
2172,-9209,23249,27616
2173,-7077,23251,27623
2174,-4756,23251,27626
2175,-2393,23255,27630
2176,-2986,23254,27632
2177,-2269,23257,27634
2178,-279,23252,27642
2179,-329,23261,27642
2180,-3832,23260,27647
2181,-4737,23261,27654
2182,-4228,23261,27653
2183,-3746,23272,27664
2184,-6142,23267,27666
2185,-8294,23267,27670
2186,-6523,23272,27677
2187,-6303,23275,27677
2188,-5703,23278,27693
2189,-4001,23280,27696
2190,-3902,23280,27704
2191,-3564,23285,27708
2192,-1159,23284,27710
2193,-3084,23280,27703
2194,907,23275,27682
2195,-4426,23258,27649
2196,-3927,23243,27600
2197,-2202,23223,27551
2198,-3505,23207,27519
2199,-6056,23197,27487
2200,-3883,23189,27452
2201,-3890,23179,27432
2202,-2741,23171,27421
2203,-6300,23169,27415
2204,-6318,23170,27408
2205,-5642,23170,27411
2206,-5458,23168,27414
2207,-4377,23173,27420
2208,-5966,23174,27426
2209,-8908,23180,27434
2210,-7695,23176,27434
2211,-6653,23184,27443
2212,-7800,23187,27445
2213,-8293,23177,27450
2214,-9741,23188,27455
2215,-10055,23186,27450
2216,-5592,23186,27459
2217,-6216,23187,27460
2218,-6319,23189,27466
2219,-7449,23194,27475
2220,-6961,23193,27484
2221,-6297,23202,27492
2222,-5107,23201,27494
2223,-5069,23205,27506
2224,-3112,23203,27500
2225,-2567,23201,27505
2226,-3746,23202,27502
2227,-3855,23201,27497
2228,-1408,23194,27492
2229,-876,23196,27487
2230,-1782,23197,27487
2231,-2410,23193,27472
2232,-10398,23194,27480
2233,-8390,23193,27483
2234,-8154,23198,27480
2235,-7155,23193,27487
2236,-6212,23199,27483
2237,-6902,23198,27498
2238,-7491,23203,27493
2239,-5257,23207,27507
2240,-6763,23205,27503
2241,-5580,23215,27511
2242,-6040,23213,27521
2243,-5505,23212,27523
2244,-5946,23215,27536
2245,-4010,23217,27540
2246,-4821,23225,27547
2247,-4177,23221,27552
2248,-4909,23227,27561
2249,-3598,23227,27559
2250,-5796,23225,27567
2251,-3609,23232,27572
2252,-1576,23235,27580
2253,-4242,23234,27581
2254,-4183,23238,27588
2255,-3580,23235,27595
2256,-4453,23241,27593
2257,-3569,23238,27596
2258,-4410,23246,27594
2259,-5005,23245,27602
2260,-7146,23247,27605
2261,-8184,23245,27612
2262,-7983,23249,27617
2263,-8201,23252,27619
2264,-10438,23246,27622
2265,-9621,23252,27624
2266,-10964,23251,27630
2267,-10157,23253,27631
2268,-9614,23250,27630
2269,-9943,23256,27639
2270,-10499,23255,27638
2271,-9587,23254,27646
2272,-9161,23264,27651
2273,-9778,23263,27657
2274,-7541,23261,27656
2275,-7257,23263,27662
2276,-4316,23274,27677
2277,-6770,23269,27680
2278,-6703,23271,27676
2279,-6214,23269,27682
2280,-5592,23273,27675
2281,-6216,23266,27655
2282,-6319,23245,27620
2283,-7449,23228,27579
2284,-6961,23218,27540
2285,-6297,23203,27505
2286,-5107,23195,27478
2287,-5069,23183,27455
2288,-3112,23179,27442
2289,-2567,23179,27433
2290,-3746,23174,27429
2291,-3855,23176,27418
2292,-1408,23176,27426
2293,-876,23177,27430
2294,-1782,23181,27444
2295,-2410,23188,27453
2296,-2404,23185,27458
2297,-1887,23196,27464
2298,-1583,23196,27476
2299,-1209,23195,27482
2300,-2119,23193,27485
2301,-363,23198,27488
2302,-1621,23203,27493
2303,-1908,23203,27502
2304,-1937,23205,27509
2305,-2095,23211,27512
2306,-3491,23216,27526
2307,-3816,23219,27536
2308,-1996,23224,27541
2309,-3000,23218,27544
2310,-2034,23222,27542
2311,-3035,23218,27537
2312,-11585,23216,27536
2313,-13136,23214,27528
2314,-14546,23215,27524
2315,-13488,23205,27516
2316,-14451,23208,27513
2317,-13630,23209,27512
2318,-13243,23204,27508
2319,-11660,23204,27511
2320,-14095,23208,27517
2321,-13596,23204,27517
2322,-11052,23211,27518
2323,-12386,23209,27529
2324,-12982,23213,27536
2325,-12927,23214,27540
2326,-10811,23219,27545
2327,-11428,23221,27554
2328,-5640,23224,27557
2329,-4248,23228,27564
2330,-4452,23234,27571
2331,-5116,23238,27575
2332,-3625,23234,27588
2333,-3117,23241,27592
2334,-2897,23246,27603
2335,-4364,23248,27611
2336,-5355,23247,27613
2337,-5387,23250,27619
2338,-5630,23251,27628
2339,-4659,23249,27632
2340,-4234,23256,27641
2341,-4185,23256,27643
2342,-3875,23255,27649
2343,-3378,23261,27653
2344,-3674,23262,27655
2345,-3710,23264,27661
2346,-2263,23267,27669
2347,-3262,23268,27669
2348,-2824,23271,27670
2349,-2053,23270,27676
2350,-1834,23274,27680
2351,-2360,23275,27691
2352,-2312,23280,27683
2353,-1762,23279,27686
2354,-3103,23278,27692
2355,-1839,23276,27699
2356,-1069,23280,27703
2357,-2282,23285,27702
2358,-2982,23282,27702
2359,-2295,23285,27717
2360,-11601,23286,27720
2361,-9623,23289,27719
2362,-10619,23293,27736
2363,-11291,23295,27737
2364,-12316,23303,27745
2365,-10950,23301,27750
2366,-13812,23297,27754
2367,-11972,23297,27746
2368,-12916,23286,27719
2369,-11432,23271,27678
2370,-10709,23250,27629
2371,-10195,23233,27586
2372,-10214,23219,27549
2373,-9836,23206,27520
2374,-10509,23195,27493
2375,-8262,23194,27479
2376,-9098,23187,27460
2377,-6130,23179,27452
2378,-4800,23182,27454
2379,-7632,23181,27456
2380,-6487,23188,27460
2381,-5514,23193,27466
2382,-6035,23195,27469
2383,-6811,23192,27477
2384,-5575,23199,27483
2385,-5777,23202,27484
2386,-4073,23201,27491
2387,-3948,23198,27500
2388,-4755,23206,27497
2389,-5516,23199,27499
2390,-5036,23204,27499
2391,-2694,23205,27510
2392,-2873,23208,27512
2393,-4515,23214,27519
2394,-4368,23211,27527
2395,-2877,23214,27539
2396,-3547,23219,27537
2397,-2595,23224,27549
2398,-3088,23219,27547
2399,-4705,23221,27547
2400,-3596,23219,27543
2401,-3225,23218,27536
2402,-2891,23208,27529
2403,-6817,23213,27524
2404,-5566,23207,27524
2405,-7638,23207,27520
2406,-6626,23207,27519
2407,-4043,23204,27520
2408,443,23210,27519
2409,180,23209,27519
2410,447,23210,27528
2411,144,23218,27526
2412,1153,23212,27535
2413,307,23215,27537
2414,1312,23221,27539
2415,1153,23220,27547
2416,682,23226,27556
2417,1008,23230,27563
2418,1329,23231,27567
2419,1572,23230,27575
2420,593,23236,27577
2421,15,23232,27589
2422,-1251,23244,27594
2423,-3080,23242,27597
2424,-222,23244,27604
2425,623,23245,27607
2426,-1123,23245,27616
2427,-3362,23252,27615
2428,-5276,23251,27627
2429,-6682,23251,27631
2430,-6566,23247,27632
2431,-6989,23254,27640
2432,-7518,23256,27644
2433,-6785,23258,27646
2434,-8122,23256,27647
2435,-7281,23257,27652
2436,-6811,23263,27656
2437,-7608,23262,27657
2438,-7919,23260,27657
2439,-8424,23258,27660
2440,-8471,23260,27670
2441,-8102,23267,27668
2442,-9376,23267,27671
2443,-8025,23263,27674
2444,-8299,23270,27680
2445,-8361,23267,27680
2446,-6730,23273,27684
2447,-6789,23276,27692
2448,-6648,23278,27699
2449,-6001,23279,27700
2450,-6094,23284,27707
2451,-5758,23285,27714
2452,-5733,23287,27716
2453,-6452,23285,27714
2454,-6823,23281,27699
2455,-7412,23266,27668
2456,-5925,23247,27629
2457,-6257,23233,27587
2458,-6113,23222,27556
2459,-7004,23206,27522
2460,-6318,23198,27498
2461,-7454,23192,27482
2462,-6135,23188,27469
2463,-5497,23186,27456
2464,-5625,23182,27456
2465,-6074,23186,27459
2466,-5835,23184,27463
2467,-5628,23184,27469
2468,-4259,23192,27478
2469,-4334,23194,27488
2470,-4663,23203,27496
2471,-5038,23197,27498
2472,-4504,23202,27507
2473,-3900,23206,27511
2474,-4449,23205,27514
2475,-3691,23208,27518
2476,-2497,23213,27518
2477,-1599,23209,27528
2478,-1886,23213,27539
2479,-2239,23220,27544
2480,-969,23220,27552
2481,-747,23218,27560
2482,-123,23222,27570
2483,-981,23228,27561
2484,-691,23221,27564
2485,720,23219,27558
2486,886,23222,27551
2487,1184,23220,27551
2488,2046,23213,27545
2489,3545,23216,27540
2490,4203,23212,27540
2491,5935,23213,27534
2492,7063,23208,27541
2493,7320,23213,27538
2494,7916,23214,27541
2495,8564,23217,27554
2496,7027,23222,27552
2497,7143,23220,27557
2498,5657,23224,27567
2499,3605,23224,27569
2500,4623,23233,27578
2501,2590,23229,27578
2502,1760,23234,27587
2503,1021,23234,27596
2504,-5018,23238,27602
2505,-5448,23239,27614
2506,-4685,23244,27613
2507,-3332,23245,27623
2508,-2572,23246,27629
2509,-3033,23250,27638
2510,-2457,23251,27641
2511,-1507,23259,27651
2512,-523,23260,27656
2513,368,23265,27659
2514,651,23263,27668
2515,1738,23267,27670
2516,-326,23266,27673
2517,-336,23269,27682
2518,-1761,23267,27682
2519,-2394,23272,27688
2520,-9084,23274,27689
2521,-9264,23273,27691
2522,-8660,23275,27696
2523,-7859,23275,27702
2524,-7966,23277,27697
2525,-7802,23278,27706
2526,-7354,23283,27708
2527,-6623,23280,27712
2528,-6350,23284,27717
2529,-5970,23284,27717
2530,-5421,23288,27727
2531,-5409,23288,27726
2532,-5377,23287,27739
2533,-5421,23292,27735
2534,-5758,23296,27750
2535,-5313,23299,27748
2536,-5016,23303,27760
2537,-3858,23294,27761
2538,-1974,23300,27763
2539,-2504,23295,27746
2540,-2140,23282,27711
2541,-1790,23263,27665
2542,-3104,23245,27618
2543,-3569,23225,27581
2544,-3430,23212,27551
2545,-2972,23204,27522
2546,-4508,23200,27498
2547,-5198,23196,27483
2548,-4948,23187,27465
2549,-4479,23188,27470
2550,-4917,23187,27459
2551,-3235,23185,27467
2552,-2917,23190,27476
2553,-1900,23190,27477
2554,-1370,23195,27486
2555,-1975,23199,27493
2556,-2132,23202,27498
2557,-2536,23204,27507
2558,-2496,23202,27505
2559,-4480,23209,27512
2560,-5577,23202,27509
2561,-5399,23201,27510
2562,-5568,23210,27517
2563,-5818,23207,27522
2564,-5640,23209,27527
2565,-5951,23213,27530
2566,-6314,23213,27541
2567,-6361,23218,27548
2568,-5018,23218,27558
2569,-5448,23221,27554
2570,-4685,23226,27559
2571,-3332,23221,27556
2572,-2572,23218,27550
2573,-3033,23219,27550
2574,-2457,23211,27545
2575,-1507,23216,27539
2576,-523,23210,27540
2577,368,23210,27537
2578,651,23213,27542
2579,1738,23208,27540
2580,-326,23211,27543
2581,-336,23213,27543
2582,-1761,23216,27550
2583,-2394,23217,27556
2584,-3263,23218,27555
2585,-2831,23224,27562
2586,-3677,23227,27574
2587,-4867,23228,27574
2588,-5783,23230,27585
2589,-5611,23236,27593
2590,-3831,23237,27599
2591,-4154,23237,27604
2592,-5436,23245,27611
2593,-5354,23244,27617
2594,-5447,23247,27623
2595,-5359,23245,27634
2596,-5493,23249,27636
2597,-6394,23251,27641
2598,-6120,23257,27646
2599,-6585,23255,27654
2600,689,23264,27653
2601,-169,23260,27665
2602,2278,23267,27667
2603,2474,23266,27668
2604,1160,23267,27673
2605,2578,23268,27680
2606,3230,23269,27679
2607,3532,23272,27688
2608,2387,23269,27688
2609,4795,23274,27693
2610,6862,23275,27696
2611,3717,23276,27701
2612,3964,23279,27701
2613,1927,23282,27705
2614,2842,23281,27708
2615,2780,23278,27715
2616,-10402,23284,27714
2617,-9477,23286,27718
2618,-8559,23287,27725
2619,-5951,23291,27733
2620,-5415,23290,27734
2621,-4771,23295,27740
2622,-5041,23293,27743
2623,-5232,23295,27751
2624,-5326,23301,27760
2625,-5700,23303,27763
2626,-5854,23298,27769
2627,-3606,23303,27772
2628,-3480,23305,27775
2629,-3111,23299,27763
2630,-3076,23289,27739
2631,-4145,23271,27703
2632,-5267,23255,27652
2633,-5872,23233,27611
2634,-6736,23221,27570
2635,-7456,23211,27542
2636,-4880,23202,27522
2637,-4573,23196,27501
2638,-5027,23193,27489
2639,-4440,23194,27478
2640,-3602,23193,27481
2641,-3380,23189,27485
2642,-3833,23197,27489
2643,-4057,23201,27500
2644,-3511,23202,27509
2645,-5068,23204,27523
2646,-3784,23213,27528
2647,-3400,23214,27531
2648,3325,23215,27543
2649,4610,23222,27547
2650,5145,23219,27553
2651,4448,23219,27548
2652,5459,23223,27558
2653,5570,23221,27563
2654,3414,23224,27570
2655,3297,23228,27585
2656,4189,23235,27584
2657,4073,23239,27595
2658,2382,23231,27598
2659,3961,23239,27602
2660,4695,23236,27601
2661,4664,23238,27599
2662,2346,23228,27589
2663,2880,23233,27581
2664,3068,23221,27581
2665,1206,23231,27577
2666,-1985,23222,27563
2667,2988,23225,27572
2668,4110,23223,27564
2669,1359,23227,27572
2670,-3061,23224,27572
2671,-2939,23227,27575
2672,-149,23230,27583
2673,-152,23229,27585
2674,-2850,23232,27592
2675,-1045,23235,27589
2676,1346,23241,27606
2677,-333,23237,27605
2678,-2418,23245,27612
2679,-3393,23244,27618
2680,-2021,23248,27625
2681,-2812,23247,27633
2682,-3819,23256,27636
2683,-4685,23254,27645
2684,-9313,23258,27650
2685,-7628,23262,27659
2686,-3910,23262,27663
2687,-5339,23265,27669
2688,-7625,23272,27674
2689,-7196,23270,27683
2690,-4788,23276,27685
2691,-2034,23272,27699
2692,-5913,23274,27695
2693,-6488,23277,27699
2694,-2336,23281,27701
2695,-3324,23281,27704
2696,-2767,23279,27711
2697,-2978,23285,27713
2698,-807,23280,27721
2699,-3841,23284,27718
2700,-1160,23283,27718
2701,-436,23288,27725
2702,-4082,23285,27726
2703,-3171,23290,27731
2704,-2834,23290,27735
2705,2031,23291,27734
2706,-2967,23290,27739
2707,-2102,23294,27748
2708,-5542,23298,27751
2709,-2755,23300,27756
2710,-4054,23298,27768
2711,-5128,23302,27770
2712,-4471,23306,27774
2713,-1265,23303,27773
2714,-3053,23300,27770
2715,-6412,23288,27745
2716,-6600,23276,27707
2717,-3824,23256,27657
2718,-5715,23235,27615
2719,-6316,23232,27578
2720,-6005,23212,27545
2721,-3044,23208,27522
2722,-4654,23195,27506
2723,-6321,23192,27493
2724,-6152,23189,27483
2725,-3517,23188,27482
2726,-4234,23191,27482
2727,-3644,23195,27489
2728,-6127,23200,27495
2729,-6588,23199,27501
2730,-6510,23203,27509
2731,-6353,23206,27514
2732,-6025,23205,27520
2733,-8187,23207,27529
2734,-6947,23213,27530
2735,-3884,23207,27532
2736,-6673,23216,27536
2737,-11730,23210,27531
2738,-7151,23212,27547
2739,-2070,23212,27549
2740,-6997,23223,27554
2741,-9055,23221,27564
2742,-6431,23226,27574
2743,-3156,23224,27581
2744,2284,23231,27582
2745,4347,23227,27586
2746,3547,23229,27580
2747,505,23229,27581
2748,5009,23229,27570
2749,-1150,23220,27568
2750,1323,23224,27564
2751,-2054,23217,27559
2752,-1926,23222,27556
2753,5451,23220,27553
2754,-252,23215,27559
2755,2082,23221,27562
2756,2145,23220,27560
2757,-1364,23222,27566
2758,575,23227,27568
2759,891,23227,27573
2760,-3251,23232,27584
2761,5013,23233,27590
2762,366,23237,27592
2763,-6092,23245,27602
2764,-1596,23239,27607
2765,-1929,23244,27607
2766,-5097,23249,27624
2767,-4273,23248,27631
2768,-6281,23251,27634
2769,-3119,23258,27637
2770,-5795,23259,27648
2771,-7969,23259,27657
2772,-5275,23261,27661
2773,-5084,23265,27666
2774,-5148,23270,27674
2775,-6511,23269,27678
2776,-8447,23266,27680
2777,-8424,23275,27689
2778,-6910,23273,27689
2779,-7902,23270,27691
2780,-5682,23279,27703
2781,-6473,23283,27701
2782,-4986,23282,27714
2783,-2664,23282,27710
2784,-5100,23282,27717
2785,-6987,23284,27711
2786,-4068,23281,27723
2787,-3121,23283,27722
2788,-2679,23285,27728
2789,-1841,23285,27730
2790,-1970,23288,27737
2791,-939,23288,27737
2792,-6447,23290,27747
2793,-5645,23293,27752
2794,-9890,23298,27759
2795,-1711,23299,27762
2796,-12773,23304,27768
2797,-7167,23306,27773
2798,-8121,23302,27776
2799,-9636,23308,27779
2800,-8099,23303,27768
2801,-9962,23286,27736
2802,-16955,23270,27705
2803,-7886,23254,27649
2804,-5888,23232,27601
2805,-11883,23219,27565
2806,-9622,23206,27536
2807,-10173,23202,27512
2808,-422,23191,27487
2809,1388,23191,27481
2810,-2521,23187,27465
2811,3352,23187,27473
2812,-3705,23184,27473
2813,2238,23188,27481
2814,-3612,23190,27485
2815,5472,23202,27495
2816,336,23197,27500
2817,-4699,23203,27507
2818,215,23202,27514
2819,974,23204,27520
2820,1383,23202,27525
2821,-4535,23210,27530
2822,-4850,23207,27528
2823,2778,23212,27533
2824,4747,23211,27542
2825,-4809,23215,27548
2826,-2069,23216,27557
2827,2277,23223,27564
2828,-1893,23218,27571
2829,-4375,23226,27577
2830,-8212,23228,27579
2831,-525,23224,27579
2832,1036,23229,27575
2833,-3404,23224,27567
2834,-2359,23224,27563
2835,1575,23227,27557
2836,-3390,23219,27555
2837,4155,23213,27552
2838,-2819,23219,27547
2839,-2106,23218,27546
2840,-5584,23218,27548
2841,-11916,23214,27555
2842,-12210,23219,27550
2843,-2495,23220,27556
2844,-6955,23224,27565
2845,-15926,23228,27569
2846,-4837,23225,27579
2847,-6902,23231,27580
2848,-5518,23236,27591
2849,-8431,23236,27599
2850,-4313,23240,27599
2851,-4330,23242,27612
2852,-1317,23244,27615
2853,-5909,23250,27624
2854,-1786,23249,27628
2855,2675,23253,27638
2856,3927,23255,27639
2857,-1036,23259,27655
2858,4082,23260,27653
2859,-2892,23265,27664
2860,-122,23265,27668
2861,-1215,23272,27673
2862,-1901,23267,27680
2863,5044,23268,27683
2864,-1995,23272,27689
2865,2180,23275,27692
2866,10738,23277,27697
2867,-417,23275,27702
2868,3737,23281,27702
2869,8112,23282,27710
2870,8289,23283,27711
2871,-1242,23281,27714
2872,6798,23288,27721
2873,1304,23286,27719
2874,-2782,23290,27730
2875,4667,23291,27731
2876,2496,23292,27734
2877,2589,23294,27743
2878,3907,23297,27742
2879,8449,23300,27750
2880,1445,23301,27755
2881,2986,23303,27757
2882,-3640,23301,27764
2883,991,23308,27770
2884,-2242,23301,27755
2885,-3511,23294,27741
2886,4222,23279,27699
2887,-2746,23260,27658
2888,6519,23239,27611
2889,9199,23230,27573
2890,3376,23214,27542
2891,24,23207,27520
2892,3717,23198,27499
2893,-1233,23199,27485
2894,-434,23192,27478
2895,3649,23191,27473
2896,1938,23190,27471
2897,-9158,23194,27481
2898,10477,23196,27492
2899,5662,23201,27497
2900,-6952,23201,27502
2901,3780,23207,27517
2902,1038,23209,27523
2903,1059,23213,27529
2904,8763,23212,27531
2905,-897,23216,27536
2906,5518,23216,27542
2907,3612,23220,27546
2908,2135,23221,27553
2909,9102,23227,27564
2910,23,23228,27572
2911,8576,23230,27584
2912,6270,23239,27589
2913,4122,23242,27597
2914,13306,23239,27592
2915,601,23235,27588
2916,7119,23236,27590
2917,15083,23230,27587
2918,2331,23227,27577
2919,920,23231,27574
2920,24153,23224,27571
2921,-4251,23224,27571
2922,15188,23223,27564
2923,4127,23225,27572
2924,14829,23227,27571
2925,11347,23230,27573
2926,7863,23233,27572
2927,8863,23232,27574
2928,13961,23236,27585
2929,1540,23232,27594
2930,8854,23235,27595
2931,6300,23244,27602
2932,5336,23242,27607
2933,6366,23247,27612
2934,2365,23251,27619
2935,6526,23252,27628
2936,2927,23253,27632
2937,391,23253,27635
2938,394,23262,27644
2939,-2487,23258,27654
2940,-2912,23264,27651
2941,646,23263,27661
2942,1430,23268,27660
2943,-2187,23264,27671
2944,3742,23271,27667
2945,17,23269,27676
2946,-661,23273,27677
2947,4164,23270,27683
2948,-2234,23275,27688
2949,8257,23276,27698
2950,-335,23281,27695
2951,-908,23280,27699
2952,6412,23279,27702
2953,7377,23287,27713
2954,-2168,23286,27711
2955,1726,23281,27723
2956,2258,23295,27724
2957,5921,23288,27732
2958,1668,23290,27736
2959,-3220,23296,27734
2960,138,23292,27726
2961,-338,23284,27716
2962,3383,23269,27677
2963,-2267,23256,27633
2964,5191,23235,27601
2965,2597,23225,27561
2966,5384,23212,27528
2967,6201,23198,27511
2968,1229,23196,27490
2969,8755,23188,27477
2970,5433,23191,27476
2971,5920,23190,27467
2972,4091,23186,27471
2973,15037,23189,27474
2974,3125,23192,27479
2975,1669,23195,27488
2976,2224,23196,27491
2977,7926,23205,27498
2978,3026,23201,27510
2979,-113,23209,27511
2980,4279,23199,27520
2981,6416,23205,27516
2982,5163,23209,27531
2983,-4848,23211,27533
2984,-4362,23218,27540
2985,-5049,23217,27551
2986,-5018,23224,27566
2987,-6382,23231,27565
2988,-4297,23228,27574
2989,-4425,23227,27577
2990,-3628,23229,27583
2991,-4610,23231,27577
2992,-3768,23225,27573
2993,-723,23228,27570
2994,-155,23214,27560
2995,903,23221,27559
2996,587,23213,27553
2997,2689,23217,27549
2998,2068,23212,27552
2999,1349,23213,27554
3000,-8133,23214,27553
3001,-6011,23218,27557
3002,-3883,23219,27562
3003,-7000,23219,27563
3004,-11219,23221,27569
3005,-2466,23222,27574
3006,-3265,23224,27580
3007,-6227,23228,27585
3008,-8794,23228,27592
3009,-9417,23227,27595
3010,-5743,23238,27597
3011,-1801,23237,27606
3012,-4418,23233,27606
3013,502,23242,27613
3014,-549,23244,27617
3015,-5449,23242,27623
3016,315,23245,27627
3017,-835,23250,27633
3018,-3837,23247,27632
3019,2043,23250,27640
3020,-1679,23249,27639
3021,-2309,23255,27643
3022,2032,23254,27644
3023,-4844,23252,27652
3024,84,23258,27651
3025,343,23256,27656
3026,-913,23262,27660
3027,2962,23256,27667
3028,3953,23265,27667
3029,4314,23264,27673
3030,3390,23261,27678
3031,1807,23270,27682
3032,-2862,23259,27688
3033,-1132,23272,27694
3034,-583,23269,27696
3035,3097,23269,27686
3036,1673,23264,27668
3037,1507,23246,27629
3038,1553,23228,27595
3039,2983,23218,27554
3040,1238,23204,27523
3041,159,23190,27494
3042,3765,23187,27472
3043,4307,23173,27449
3044,5809,23171,27435
3045,2607,23170,27430
3046,2444,23164,27418
3047,2679,23167,27421
3048,1255,23166,27422
3049,1650,23165,27433
3050,-1167,23169,27437
3051,211,23172,27437
3052,612,23169,27441
3053,830,23172,27446
3054,2646,23173,27444
3055,1427,23176,27453
3056,3306,23174,27451
3057,3073,23171,27454
3058,406,23174,27455
3059,1014,23178,27458
3060,1084,23178,27461
3061,1210,23181,27475
3062,1251,23188,27485
3063,2546,23190,27490
3064,3486,23188,27491
3065,3725,23190,27493
3066,1094,23188,27502
3067,-1016,23189,27500
3068,-862,23188,27498
3069,-982,23186,27490
3070,-548,23187,27484
3071,-904,23184,27483
3072,2029,23179,27480
3073,2509,23184,27483
3074,491,23179,27479
3075,480,23179,27480
3076,1599,23185,27480
3077,256,23183,27487
3078,-508,23187,27487
3079,-2936,23189,27487
3080,93,23185,27493
3081,-325,23186,27496
3082,-617,23189,27500
3083,-529,23195,27511
3084,231,23199,27510
3085,-1667,23195,27518
3086,-2563,23200,27524
3087,-1967,23205,27526
3088,-3342,23203,27540
3089,-4627,23205,27545
3090,-4390,23213,27544
3091,-5148,23211,27555
3092,-5145,23218,27562
3093,-4820,23215,27563
3094,-3941,23215,27566
3095,-3232,23218,27585
3096,4738,23223,27575
3097,5151,23222,27592
3098,6072,23223,27593
3099,5378,23223,27592
3100,4368,23227,27599
3101,3138,23228,27601
3102,3691,23231,27609
3103,3258,23227,27612
3104,3118,23233,27610
3105,2515,23238,27623
3106,2860,23236,27629
3107,2711,23241,27633
3108,1988,23240,27638
3109,2351,23247,27641
3110,173,23244,27644
3111,-353,23251,27652
3112,-449,23253,27665
3113,-1508,23252,27668
3114,-1657,23258,27673
3115,-2055,23251,27666
3116,-1808,23247,27649
3117,-2824,23237,27623
3118,-3519,23214,27571
3119,-3548,23204,27538
3120,-2843,23184,27500
3121,-2502,23173,27468
3122,-2867,23168,27449
3123,-3687,23162,27425
3124,-5957,23155,27406
3125,-7306,23148,27407
3126,-7452,23155,27403
3127,-6143,23152,27395
3128,2041,23153,27407
3129,508,23157,27411
3130,244,23156,27409
3131,-1453,23160,27424
3132,-2524,23165,27428
3133,-2303,23163,27434
3134,-1683,23167,27436
3135,-1216,23167,27439
3136,-1373,23168,27439
3137,-1521,23170,27447
3138,-653,23174,27449
3139,-924,23172,27451
3140,-1413,23175,27466
3141,-2412,23180,27468
3142,-2708,23183,27484
3143,-2063,23185,27485
3144,-1690,23193,27496
3145,-1361,23190,27498
3146,-2847,23189,27503
3147,-4102,23186,27500
3148,-3611,23192,27495
3149,-3056,23183,27492
3150,-2883,23185,27487
3151,-3127,23187,27485
3152,-2741,23182,27484
3153,-3507,23185,27484
3154,-3445,23180,27484
3155,-4101,23182,27480
3156,-3472,23187,27484
3157,-3138,23186,27489
3158,-2512,23187,27495
3159,-4392,23191,27502
3160,-3991,23192,27504
3161,-3537,23195,27509
3162,-2592,23196,27514
3163,-2003,23202,27523
3164,-1562,23204,27528
3165,-616,23205,27535
3166,-741,23206,27541
3167,-1099,23211,27548
3168,-741,23216,27558
3169,-1055,23216,27560
3170,-679,23221,27567
3171,-491,23226,27578
3172,1181,23224,27583
3173,1863,23225,27589
3174,2706,23230,27591
3175,2159,23236,27593
3176,-1459,23235,27606
3177,-1624,23235,27606
3178,-322,23236,27614
3179,1312,23242,27616
3180,946,23243,27617
3181,-24,23240,27618
3182,1024,23246,27624
3183,2354,23242,27627
3184,1852,23244,27636
3185,1275,23250,27630
3186,1553,23252,27641
3187,3790,23250,27637
3188,3879,23251,27646
3189,3066,23254,27653
3190,2278,23258,27655
3191,2096,23257,27670
3192,3804,23259,27671
3193,3322,23268,27679
3194,1702,23270,27679
3195,1883,23271,27690
3196,2075,23276,27691
3197,2643,23273,27694
3198,1843,23268,27683
3199,754,23257,27657
3200,-140,23246,27620
3201,-1230,23221,27583
3202,-2239,23211,27537
3203,-2786,23199,27500
3204,-1548,23189,27475
3205,-520,23175,27451
3206,-101,23169,27435
3207,824,23167,27420
3208,1361,23166,27421
3209,1205,23166,27421
3210,2094,23165,27422
3211,1036,23169,27429
3212,145,23171,27436
3213,750,23175,27441
3214,2243,23178,27443
3215,3334,23179,27453
3216,2803,23182,27461
3217,3043,23182,27456
3218,2243,23181,27467
3219,3685,23184,27463
3220,2632,23184,27470
3221,2200,23191,27479
3222,2385,23190,27482
3223,2306,23195,27495
3224,2425,23199,27505
3225,2216,23202,27510
3226,1566,23203,27512
3227,1976,23204,27521
3228,3877,23206,27519
3229,4657,23202,27516
3230,5220,23203,27511
3231,4355,23202,27513
3232,5287,23200,27504
3233,4291,23194,27500
3234,2923,23197,27500
3235,2358,23196,27496
3236,2592,23192,27499
3237,2459,23198,27501
3238,1992,23194,27498
3239,2464,23198,27509
3240,2933,23201,27514
3241,2831,23203,27518
3242,3843,23208,27522
3243,3820,23204,27526
3244,3437,23209,27532
3245,3024,23207,27534
3246,2707,23212,27548
3247,2735,23219,27554
3248,3789,23223,27560
3249,3297,23219,27563
3250,3697,23224,27573
3251,2802,23231,27580
3252,998,23227,27581
3253,-171,23235,27591
3254,-1655,23235,27593
3255,-1681,23233,27605
3256,-1242,23237,27604
3257,-53,23239,27615
3258,169,23241,27613
3259,526,23246,27620
3260,1570,23240,27626
3261,2400,23252,27629
3262,2165,23249,27623
3263,2685,23243,27635
3264,3673,23249,27632
3265,4038,23250,27642
3266,3691,23254,27642
3267,2067,23255,27642
3268,1406,23257,27647
3269,-118,23256,27656
3270,-640,23255,27666
3271,-1664,23267,27666
3272,-5092,23261,27669
3273,-3991,23266,27677
3274,-3799,23269,27686
3275,-4317,23267,27686
3276,-4202,23273,27683
3277,-5347,23266,27671
3278,-6450,23256,27654
3279,-6688,23242,27626
3280,-7035,23231,27580
3281,-7468,23211,27545
3282,-7114,23197,27510
3283,-7323,23186,27486
3284,-7446,23185,27467
3285,-3243,23179,27444
3286,-2466,23172,27435
3287,-863,23169,27428
3288,-991,23172,27421
3289,-1747,23169,27431
3290,-1584,23172,27428
3291,-2382,23173,27436
3292,-3156,23177,27443
3293,-2774,23177,27449
3294,-4236,23181,27455
3295,-4755,23182,27462
3296,-4063,23183,27461
3297,-3000,23184,27466
3298,-1965,23181,27467
3299,-1745,23188,27474
3300,-1181,23183,27480
3301,115,23193,27483
3302,-508,23197,27490
3303,-1510,23198,27501
3304,-2783,23204,27504
3305,-2849,23205,27515
3306,-3502,23204,27521
3307,-4119,23202,27517
3308,-5412,23203,27518
3309,-6430,23199,27515
3310,-6635,23205,27510
3311,-7159,23201,27505
3312,-7482,23196,27506
3313,-6778,23197,27498
3314,-6773,23198,27498
3315,-6571,23195,27497
3316,-5426,23201,27497
3317,-5376,23195,27501
3318,-4208,23200,27505
3319,-3705,23198,27508
3320,4602,23196,27509
3321,2326,23205,27519
3322,1394,23202,27518
3323,1240,23211,27530
3324,1139,23207,27532
3325,-639,23219,27539
3326,-1336,23218,27546
3327,-1235,23222,27557
3328,-683,23224,27559
3329,-751,23223,27564
3330,649,23229,27574
3331,1622,23233,27581
3332,3435,23236,27587
3333,2943,23233,27590
3334,2385,23236,27600
3335,4013,23242,27608
3336,4235,23245,27613
3337,4223,23244,27618
3338,5494,23249,27623
3339,4827,23247,27626
3340,4145,23248,27631
3341,2977,23253,27633
3342,1624,23254,27636
3343,1279,23255,27645
3344,-193,23256,27644
3345,-1488,23256,27651
3346,-1974,23260,27650
3347,-2534,23263,27655
3348,-2803,23264,27661
3349,-3048,23267,27662
3350,-3564,23265,27666
3351,-4122,23270,27674
3352,-2784,23270,27678
3353,-2925,23272,27682
3354,-1556,23274,27688
3355,144,23276,27692
3356,358,23280,27696
3357,1073,23287,27704
3358,313,23280,27711
3359,-1120,23279,27716
3360,-2355,23277,27692
3361,-3578,23263,27666
3362,-5186,23250,27625
3363,-5150,23230,27580
3364,-4769,23215,27539
3365,-5851,23204,27502
3366,-5769,23189,27482
3367,-5890,23188,27459
3368,4912,23181,27440
3369,2308,23174,27424
3370,2434,23169,27419
3371,-22,23172,27421
3372,5072,23176,27424
3373,3172,23176,27421
3374,5175,23175,27434
3375,634,23185,27434
3376,-1667,23181,27443
3377,4445,23179,27448
3378,1072,23184,27454
3379,-1131,23183,27459
3380,3887,23189,27460
3381,2250,23190,27462
3382,2004,23189,27458
3383,4142,23189,27468
3384,1058,23191,27467
3385,1010,23193,27482
3386,1275,23201,27481
3387,4129,23201,27498
3388,2530,23203,27508
3389,-43,23209,27505
3390,3916,23203,27515
3391,7161,23211,27510
3392,5137,23208,27508
3393,2953,23200,27508
3394,3556,23202,27496
3395,6571,23197,27496
3396,4259,23195,27494
3397,188,23195,27490
3398,2150,23194,27497
3399,5575,23191,27493
3400,4771,23204,27496
3401,4806,23204,27493
3402,3481,23196,27505
3403,5894,23206,27507
3404,7190,23208,27506
3405,764,23208,27518
3406,2457,23208,27516
3407,6611,23211,27529
3408,1804,23221,27530
3409,2789,23215,27540
3410,1622,23218,27543
3411,3304,23225,27556
3412,4892,23230,27563
3413,-166,23229,27571
3414,356,23237,27574
3415,5160,23232,27581
3416,4183,23244,27591
3417,-3308,23239,27594
3418,-7353,23242,27599
3419,-3084,23247,27612
3420,18,23246,27612
3421,-1466,23249,27615
3422,-2768,23251,27620
3423,-622,23255,27626
3424,-970,23257,27631
3425,-4069,23253,27635
3426,-4042,23261,27637
3427,-4407,23256,27645
3428,-3463,23264,27652
3429,4030,23264,27654
3430,-8902,23266,27651
3431,-8176,23265,27656
3432,1855,23265,27661
3433,-3938,23265,27668
3434,-5979,23274,27675
3435,-5670,23273,27677
3436,-6921,23269,27681
3437,8153,23278,27683
3438,4962,23278,27692
3439,-2450,23279,27695
3440,-2034,23286,27701
3441,-4875,23285,27702
3442,4718,23288,27710
3443,-3608,23291,27723
3444,-4790,23295,27723
3445,6183,23298,27733
3446,876,23294,27731
3447,-3585,23300,27739
3448,-3670,23294,27720
3449,-7136,23280,27694
3450,1310,23266,27642
3451,638,23242,27599
3452,-702,23229,27556
3453,1466,23209,27517
3454,-16,23200,27491
3455,2547,23189,27468
3456,1513,23186,27447
3457,2069,23178,27436
3458,2179,23176,27427
3459,2608,23180,27430
3460,578,23176,27426
3461,2634,23178,27433
3462,1412,23184,27441
3463,7015,23188,27447
3464,3772,23191,27452
3465,-4294,23187,27460
3466,2601,23192,27462
3467,2306,23197,27469
3468,-2728,23193,27469
3469,3672,23195,27470
3470,-2716,23194,27473
3471,-790,23198,27474
3472,3201,23196,27481
3473,-6129,23202,27487
3474,-2430,23200,27500
3475,3100,23208,27509
3476,-5125,23206,27515
3477,-3191,23213,27522
3478,-2408,23216,27523
3479,95,23211,27525
3480,-3744,23217,27523
3481,1973,23212,27517
3482,-1234,23209,27516
3483,4614,23209,27506
3484,876,23199,27512
3485,283,23204,27500
3486,2691,23207,27504
3487,2567,23201,27504
3488,-1057,23204,27508
3489,-1407,23204,27510
3490,-1475,23209,27513
3491,-7839,23206,27517
3492,-5482,23209,27518
3493,-7110,23216,27527
3494,-9620,23221,27532
3495,-4318,23217,27538
3496,-3460,23223,27543
3497,-8320,23229,27553
3498,-6383,23226,27558
3499,-5825,23231,27566
3500,479,23233,27574
3501,-304,23242,27584
3502,-9224,23241,27590
3503,-671,23244,27596
3504,-2408,23244,27601
3505,-3111,23249,27606
3506,-1391,23249,27617
3507,-5807,23257,27616
3508,-995,23257,27628
3509,-4281,23259,27631
3510,-2275,23264,27633
3511,-2057,23264,27640
3512,-488,23260,27647
3513,3428,23265,27651
3514,1962,23266,27654
3515,-969,23267,27660
3516,2795,23270,27667
3517,5040,23272,27665
3518,-1996,23272,27673
3519,1315,23274,27672
3520,-1626,23278,27684
3521,496,23281,27686
3522,4408,23278,27687
3523,-3958,23274,27692
3524,-3251,23282,27696
3525,3889,23282,27701
3526,-3848,23285,27704
3527,1514,23284,27709
3528,3772,23290,27713
3529,-4294,23295,27719
3530,2601,23292,27726
3531,2306,23295,27733
3532,-2728,23304,27743
3533,3672,23301,27744
3534,-2716,23305,27756
3535,-790,23308,27761
3536,3201,23311,27756
3537,-6129,23301,27749
3538,-2430,23289,27719
3539,3100,23271,27678
3540,-5125,23255,27631
3541,-3191,23238,27575
3542,-2408,23222,27548
3543,95,23209,27520
3544,447,23205,27494
3545,-277,23198,27468
3546,-746,23188,27465
3547,2057,23194,27453
3548,-1199,23190,27454
3549,-5906,23193,27454
3550,-4195,23197,27461
3551,3363,23199,27467
3552,-2237,23202,27477
3553,-3787,23199,27489
3554,-3550,23210,27491
3555,2170,23209,27500
3556,232,23213,27504
3557,-5568,23217,27506
3558,-1205,23212,27512
3559,7525,23219,27514
3560,-3634,23216,27523
3561,-2852,23225,27527
3562,-3798,23220,27538
3563,-3581,23228,27547
3564,-10678,23232,27554
3565,-1094,23229,27564
3566,-5740,23236,27567
3567,-4225,23231,27569
3568,-4980,23235,27574
3569,-7095,23236,27572
3570,-3078,23233,27560
3571,-7393,23233,27562
3572,-8805,23225,27552
3573,-3530,23227,27550
3574,-2745,23222,27539
3575,-8214,23223,27546
3576,-2018,23226,27543
3577,13974,23224,27543
3578,8012,23224,27543
3579,-7902,23227,27554
3580,4135,23233,27553
3581,4493,23229,27561
3582,3783,23232,27566
3583,12664,23239,27571
3584,-1205,23238,27581
3585,-10320,23242,27589
3586,8373,23241,27592
3587,-1524,23244,27601
3588,-1294,23248,27609
3589,-222,23248,27614
3590,-4777,23257,27622
3591,3710,23258,27625
3592,6321,23261,27640
3593,90,23261,27638
3594,-1464,23263,27650
3595,659,23272,27657
3596,-1037,23274,27659
3597,3915,23271,27664
3598,-4856,23276,27677
3599,-6269,23278,27682
3600,-229,23281,27681
3601,1275,23281,27683
3602,-2327,23280,27693
3603,-2869,23284,27697
3604,-5213,23285,27702
3605,4613,23285,27704
3606,2760,23291,27710
3607,-5577,23289,27711
3608,952,23291,27716
3609,917,23292,27719
3610,-9388,23292,27720
3611,-2346,23293,27723
3612,1449,23298,27727
3613,-1290,23300,27735
3614,-1683,23297,27738
3615,-8811,23300,27742
3616,-4404,23301,27751
3617,-611,23308,27755
3618,-5572,23305,27760
3619,-1654,23310,27766
3620,-4881,23313,27773
3621,-2133,23316,27780
3622,-3153,23318,27789
3623,-4743,23320,27788
3624,-3634,23317,27785
3625,-2852,23309,27763
3626,-3798,23297,27724
3627,-3581,23272,27673
3628,-10678,23256,27636
3629,-1094,23238,27588
3630,-5740,23224,27558
3631,-4225,23215,27529
3632,-4980,23206,27507
3633,-7095,23204,27495
3634,-3078,23199,27488
3635,-7393,23203,27485
3636,-8805,23200,27485
3637,-3530,23204,27492
3638,-2745,23207,27500
3639,-8214,23216,27513
3640,-1186,23216,27519
3641,-6168,23222,27529
3642,-11899,23226,27535
3643,-2832,23225,27547
3644,-4718,23233,27552
3645,-5793,23236,27549
3646,-9086,23234,27565
3647,-5043,23236,27565
3648,-4829,23245,27577
3649,-5730,23246,27583
3650,-2873,23250,27595
3651,-3145,23254,27607
3652,-1695,23258,27614
3653,-5793,23255,27620
3654,-4152,23253,27624
3655,128,23256,27621
3656,618,23255,27614
3657,-28237,23252,27611
3658,9368,23248,27598
3659,17257,23245,27596
3660,21535,23239,27590
3661,-1233,23244,27585
3662,-13158,23234,27590
3663,-28817,23243,27587
3664,7778,23240,27579
3665,-27029,23238,27590
3666,13269,23247,27598
3667,-9310,23247,27599
3668,-14266,23251,27605
3669,1759,23253,27609
3670,6421,23254,27619
3671,3812,23259,27627
3672,2652,23260,27632
3673,267,23266,27643
3674,5106,23266,27643
3675,-874,23270,27656
3676,1021,23273,27665
3677,5015,23270,27669
3678,-1389,23278,27680
3679,3119,23283,27689
3680,20,23286,27695
3681,1608,23288,27701
3682,1344,23294,27702
3683,2935,23297,27717
3684,3990,23295,27717
3685,1992,23296,27725
3686,301,23297,27726
3687,3540,23303,27740
3688,597,23302,27739
3689,1790,23301,27743
3690,6084,23307,27754
3691,1940,23305,27752
3692,-2368,23306,27760
3693,-330,23312,27763
3694,4389,23311,27769
3695,-42,23307,27773
3696,1953,23317,27775
3697,1176,23319,27775
3698,1019,23313,27779
3699,-33,23322,27794
3700,2471,23321,27788
3701,-612,23326,27796
3702,-958,23325,27801
3703,1081,23325,27800
3704,-6122,23325,27804
3705,-4021,23333,27810
3706,-24,23332,27816
3707,-3979,23333,27823
3708,-2307,23332,27834
3709,-1293,23341,27844
3710,-347,23344,27844
3711,-101,23347,27847
3712,-1781,23344,27858
3713,-424,23345,27854
3714,-634,23334,27827
3715,-2387,23321,27789
3716,-1630,23299,27729
3717,-43,23273,27669
3718,-750,23254,27629
3719,-3329,23245,27594
3720,1995,23234,27564
3721,2184,23228,27545
3722,205,23220,27526
3723,1954,23212,27514
3724,1442,23213,27508
3725,1048,23215,27511
3726,2893,23212,27513
3727,2400,23223,27527
3728,661,23223,27528
3729,5294,23224,27545
3730,2393,23231,27553
3731,6299,23234,27564
3732,997,23230,27571
3733,274,23240,27575
3734,4957,23240,27578
3735,-240,23239,27588
3736,-3129,23241,27587
3737,1829,23241,27593
3738,-890,23247,27603
3739,-2223,23251,27609
3740,827,23252,27623
3741,-2547,23264,27630
3742,948,23255,27636
3743,2532,23267,27645
3744,591,23263,27639
3745,5904,23268,27646
3746,-8735,23257,27639
3747,24566,23262,27634
3748,-12024,23249,27626
3749,-13868,23254,27621
3750,-31605,23245,27617
3751,1773,23247,27610
3752,2634,23246,27611
3753,-9244,23247,27607
3754,-2599,23245,27610
3755,312,23249,27614
3756,14949,23252,27614
3757,-15251,23250,27617
3758,-13266,23256,27626
3759,20710,23258,27630
3760,17889,23259,27642
3761,-15372,23268,27646
3762,-9167,23269,27654
3763,13169,23271,27662
3764,-4216,23270,27668
3765,-11853,23275,27679
3766,6293,23276,27688
3767,14293,23286,27695
3768,-971,23286,27696
3769,615,23288,27716
3770,563,23292,27716
3771,-209,23297,27721
3772,-2511,23299,27732
3773,1575,23302,27735
3774,977,23303,27739
3775,1103,23301,27756
3776,3125,23307,27759
3777,-559,23309,27765
3778,165,23312,27769
3779,4162,23307,27770
3780,-1730,23314,27775
3781,570,23318,27777
3782,135,23313,27785
3783,-867,23321,27787
3784,-1004,23324,27789
3785,2020,23320,27797
3786,869,23320,27801
3787,-312,23325,27804
3788,1458,23326,27812
3789,3541,23321,27812
3790,913,23330,27821
3791,4074,23329,27822
3792,4439,23333,27826
3793,3279,23335,27827
3794,7102,23335,27837
3795,565,23338,27839
3796,2407,23341,27852
3797,4041,23342,27858
3798,3383,23342,27862
3799,1705,23351,27868
3800,-4454,23348,27877
3801,-11315,23354,27883
3802,-1219,23348,27872
3803,-1606,23345,27851
3804,4031,23320,27803
3805,8190,23294,27736
3806,329,23275,27682
3807,-11694,23259,27641
3808,2409,23245,27602
3809,2249,23232,27573
3810,15085,23227,27556
3811,-4052,23219,27536
3812,6078,23212,27526
3813,2760,23213,27518
3814,-6057,23211,27520
3815,8614,23215,27523
3816,8172,23221,27539
3817,259,23230,27545
3818,1674,23228,27560
3819,5720,23234,27571
3820,6376,23232,27574
3821,9296,23242,27586
3822,3760,23241,27589
3823,5536,23242,27593
3824,2177,23245,27596
3825,3102,23247,27603
3826,7639,23248,27610
3827,7582,23249,27619
3828,8841,23258,27632
3829,5833,23262,27634
3830,4895,23264,27646
3831,9365,23266,27661
3832,6242,23269,27661
3833,7394,23270,27662
3834,7640,23269,27664
3835,3565,23269,27658
3836,3092,23267,27654
3837,3758,23261,27645
3838,2879,23262,27640
3839,680,23260,27630
3840,1204,23249,27627
3841,3313,23254,27630
3842,-276,23253,27623
3843,-4025,23250,27628
3844,-3611,23255,27630
3845,6964,23257,27632
3846,-4439,23255,27638
3847,-865,23265,27651
3848,-1602,23264,27653
3849,1381,23268,27658
3850,739,23276,27662
3851,736,23269,27673
3852,-1278,23280,27683
3853,1548,23284,27687
3854,-2205,23284,27699
3855,-3548,23288,27707
3856,1257,23289,27716
3857,-961,23294,27723
3858,-1962,23300,27733
3859,1593,23296,27739
3860,-248,23305,27748
3861,1132,23310,27759
3862,-249,23309,27760
3863,1953,23309,27768
3864,706,23315,27779
3865,-4791,23319,27781
3866,2941,23314,27785
3867,-978,23323,27791
3868,-2559,23326,27798
3869,2526,23326,27801
3870,131,23321,27807
3871,673,23331,27818
3872,1316,23330,27818
3873,35,23333,27820
3874,-1210,23333,27827
3875,2300,23331,27827
3876,2823,23338,27834
3877,4496,23335,27832
3878,2481,23339,27846
3879,2700,23341,27848
3880,2741,23338,27847
3881,2096,23344,27853
3882,1992,23345,27859
3883,-431,23346,27863
3884,-2623,23349,27871
3885,-1047,23349,27872
3886,2034,23350,27880
3887,-2175,23354,27882
3888,734,23352,27897
3889,-1988,23360,27901
3890,-418,23360,27904
3891,-460,23360,27909
3892,-1349,23355,27888
3893,-1707,23342,27856
3894,334,23324,27796
3895,-1636,23292,27741
3896,96,23274,27681
3897,-2947,23259,27641
3898,-3241,23242,27609
3899,-285,23235,27582
3900,-3324,23228,27567
3901,-5456,23223,27551
3902,-6466,23221,27553
3903,-5728,23224,27552
3904,-3356,23230,27556
3905,-6174,23227,27563
3906,-4962,23235,27576
3907,-3875,23236,27586
3908,-2152,23245,27600
3909,-1771,23251,27609
3910,-644,23247,27620
3911,69,23257,27631
3912,-232,23254,27634
3913,-5075,23258,27643
3914,-5017,23266,27645
3915,-3942,23261,27650
3916,-4181,23269,27663
3917,-4403,23267,27669
3918,-4629,23272,27683
3919,-4477,23281,27691
3920,-2320,23282,27699
3921,-866,23280,27703
3922,-4102,23280,27705
3923,-2193,23285,27705
3924,-1405,23281,27700
3925,-2387,23276,27689
3926,-1250,23272,27676
3927,389,23272,27675
3928,-2536,23269,27663
3929,272,23264,27661
3930,-1429,23267,27652
3931,-2246,23257,27659
3932,-1834,23265,27658
3933,-1734,23264,27658
3934,-1833,23263,27665
3935,-3754,23266,27670
3936,-3423,23268,27671
3937,-1362,23276,27683
3938,-1254,23276,27691
3939,-177,23275,27695
3940,-1492,23283,27705
3941,-192,23283,27708
3942,-346,23291,27719
3943,-3103,23291,27726
3944,3691,23294,27738
3945,3264,23300,27751
3946,466,23300,27752
3947,329,23305,27759
3948,2323,23305,27765
3949,113,23309,27775
3950,2799,23313,27783
3951,-848,23314,27790
3952,-3383,23318,27800
3953,-1028,23316,27806
3954,-2806,23322,27813
3955,-3111,23327,27814
3956,0,23329,27819
3957,-690,23332,27823
3958,-1505,23332,27834
3959,-3701,23332,27832
3960,342,23335,27837
3961,1069,23332,27845
3962,1352,23340,27847
3963,802,23339,27851
3964,949,23339,27851
3965,2288,23343,27857
3966,2922,23343,27863
3967,2727,23346,27862
3968,3253,23345,27871
3969,-29,23347,27874
3970,-839,23349,27880
3971,897,23351,27878
3972,-1013,23352,27891
3973,-4362,23358,27900
3974,613,23357,27903
3975,-266,23359,27912
3976,-760,23356,27902
3977,-2649,23350,27888
3978,-4108,23338,27854
3979,-5596,23311,27789
3980,-1256,23289,27730
3981,-3009,23273,27684
3982,-3238,23250,27639
3983,-2827,23242,27614
3984,-3990,23234,27590
3985,-3955,23230,27580
3986,1650,23224,27563
3987,-260,23224,27561
3988,-1100,23226,27557
3989,-847,23228,27565
3990,-1509,23231,27572
3991,-1467,23238,27587
3992,2238,23241,27595
3993,2087,23245,27605
3994,2329,23246,27614
3995,2171,23254,27627
3996,725,23257,27637
3997,186,23253,27641
3998,802,23266,27651
3999,229,23265,27658
4000,612,23262,27665
4001,1397,23268,27674
4002,-159,23279,27678
4003,563,23280,27695
4004,1631,23290,27713
4005,142,23287,27719
4006,192,23291,27715
4007,-597,23288,27719
4008,770,23288,27719
4009,615,23286,27710
4010,1104,23276,27704
4011,3988,23277,27690
4012,5360,23270,27682
4013,3066,23271,27681
4014,4462,23269,27678
4015,4286,23263,27675
4016,6469,23270,27673
4017,6936,23268,27672
4018,5054,23270,27677
4019,6419,23263,27678
4020,6734,23268,27689
4021,6914,23272,27690
4022,7158,23276,27700
4023,7292,23280,27705
4024,7501,23277,27713
4025,8534,23286,27723
4026,7365,23286,27728
4027,7231,23294,27738
4028,6173,23295,27742
4029,7492,23298,27756
4030,5561,23300,27768
4031,6416,23304,27770
4032,5247,23311,27783
4033,5813,23316,27788
4034,4546,23309,27793
4035,3749,23318,27808
4036,4370,23326,27809
4037,3493,23319,27817
4038,3445,23327,27824
4039,2551,23328,27826
4040,-890,23332,27839
4041,-550,23327,27843
4042,1039,23338,27846
4043,-1099,23339,27856
4044,1403,23341,27855
4045,-433,23336,27860
4046,-1061,23342,27867
4047,-377,23341,27865
4048,343,23338,27867
4049,272,23346,27873
4050,-532,23344,27874
4051,-148,23344,27877
4052,-590,23346,27882
4053,-1101,23353,27890
4054,-1758,23353,27888
4055,-1761,23351,27898
4056,-1831,23353,27903
4057,-3162,23360,27911
4058,-1947,23361,27912
4059,-1594,23360,27918
4060,-3792,23364,27929
4061,-3718,23362,27921
4062,-2101,23357,27909
4063,-1979,23338,27861
4064,-2674,23317,27805
4065,-1332,23289,27743
4066,-2715,23266,27688
4067,-1337,23256,27646
4068,-535,23239,27612
4069,-169,23231,27589
4070,-201,23220,27573
4071,-1944,23218,27558
4072,-730,23214,27555
4073,653,23219,27554
4074,-2154,23214,27550
4075,231,23221,27560
4076,2103,23227,27577
4077,-1189,23225,27584
4078,-349,23235,27597
4079,1415,23245,27606
4080,-499,23239,27612
4081,2540,23247,27619
4082,-174,23243,27624
4083,-1215,23247,27631
4084,1563,23248,27632
4085,437,23250,27635
4086,2476,23253,27645
4087,5354,23257,27654
4088,2190,23259,27663
4089,-3358,23266,27676
4090,-155,23267,27684
4091,-1600,23266,27686
4092,-2789,23273,27692
4093,-1081,23269,27690
4094,-2630,23269,27687
4095,-1451,23267,27682
4096,219,23260,27676
4097,-2242,23257,27664
4098,1268,23257,27661
4099,21,23252,27654
4100,-718,23257,27652
4101,-1191,23254,27646
4102,-2060,23255,27653
4103,-2052,23252,27648
4104,-890,23251,27657
4105,-550,23260,27656
4106,1039,23257,27661
4107,-1099,23259,27666
4108,1403,23262,27677
4109,-433,23266,27679
4110,-1061,23269,27690
4111,-377,23270,27696
4112,343,23276,27704
4113,272,23284,27712
4114,-532,23279,27725
4115,-148,23289,27728
4116,-590,23289,27733
4117,-1101,23285,27749
4118,-1758,23294,27750
4119,-1761,23301,27760
4120,-2023,23300,27766
4121,-2190,23305,27777
4122,-4713,23304,27785
4123,-3958,23311,27789
4124,-1260,23310,27797
4125,-2078,23315,27801
4126,624,23317,27806
4127,545,23316,27814
4128,676,23319,27815
4129,1553,23317,27822
4130,1049,23323,27825
4131,66,23324,27829
4132,-1211,23326,27837
4133,179,23322,27835
4134,-338,23325,27836
4135,-146,23328,27840
4136,-3737,23326,27842
4137,-261,23333,27851
4138,-1377,23336,27852
4139,-2631,23333,27856
4140,-1143,23337,27867
4141,-3609,23339,27864
4142,-1232,23339,27880
4143,-4211,23341,27885
4144,-1765,23342,27888
4145,-3380,23350,27899
4146,-3430,23350,27907
4147,-2214,23348,27891
4148,-3025,23334,27881
4149,-3413,23324,27827
4150,-2077,23298,27775
4151,-2808,23275,27716
4152,-4207,23255,27659
4153,-3348,23240,27631
4154,-3283,23224,27595
4155,-1449,23220,27575
4156,-1332,23212,27551
4157,-2553,23208,27549
4158,-2894,23203,27539
4159,-5370,23204,27534
4160,-3629,23210,27548
4161,-5053,23214,27552
4162,-4332,23217,27558
4163,-2003,23218,27567
4164,-1504,23224,27577
4165,-1017,23226,27590
4166,-2268,23229,27591
4167,-3105,23235,27597
4168,-1296,23234,27602
4169,-2324,23232,27607
4170,-1779,23234,27605
4171,-1893,23237,27616
4172,-1375,23237,27625
4173,63,23242,27627
4174,212,23249,27641
4175,-938,23256,27653
4176,1529,23254,27657
4177,2219,23255,27669
4178,2062,23258,27663
4179,624,23259,27669
4180,14,23255,27662
4181,1693,23257,27660
4182,2340,23248,27649
4183,2831,23243,27648
4184,-1175,23241,27640
4185,-849,23244,27635
4186,-634,23246,27637
4187,-535,23239,27629
4188,-461,23234,27634
4189,-1771,23245,27628
4190,-1231,23242,27638
4191,-1832,23248,27646
4192,-2695,23247,27644
4193,-857,23250,27659
4194,-1489,23252,27660
4195,-736,23253,27670
4196,-1313,23259,27674
4197,-1600,23261,27679
4198,-1958,23263,27686
4199,-833,23267,27698
4200,-1096,23273,27705
4201,-588,23273,27717
4202,-1652,23277,27724
4203,-2515,23274,27727
4204,-1707,23285,27739
4205,-2594,23288,27744
4206,-4098,23289,27750
4207,-2763,23293,27758
4208,-1665,23292,27768
4209,-3941,23301,27769
4210,-3989,23300,27773
4211,-1412,23299,27779
4212,-4549,23305,27784
4213,-2518,23302,27791
4214,-1987,23308,27791
4215,-3154,23305,27803
4216,-1935,23304,27803
4217,-2027,23305,27805
4218,-2548,23313,27808
4219,-1786,23310,27812
4220,-2808,23310,27817
4221,-2352,23315,27820
4222,-2866,23316,27824
4223,-4132,23311,27826
4224,-3205,23322,27832
4225,-5402,23323,27832
4226,-4334,23326,27842
4227,-2090,23317,27849
4228,-2234,23329,27853
4229,-1929,23331,27856
4230,-3707,23329,27865
4231,-2563,23334,27874
4232,1425,23332,27867
4233,2020,23324,27854
4234,1986,23309,27814
4235,1052,23289,27758
4236,515,23269,27713
4237,-60,23254,27662
4238,749,23232,27621
4239,249,23224,27599
4240,-398,23216,27573
4241,-647,23208,27555
4242,-1026,23203,27547
4243,512,23201,27533
4244,1326,23206,27542
4245,1155,23209,27543
4246,1126,23206,27553
4247,2356,23216,27559
4248,3398,23216,27574
4249,2981,23225,27587
4250,3197,23225,27595
4251,3164,23231,27606
4252,1276,23235,27611
4253,2600,23230,27609
4254,1989,23240,27622
4255,331,23235,27623
4256,1441,23235,27635
4257,1302,23240,27639
4258,601,23247,27655
4259,1188,23251,27661
4260,935,23254,27674
4261,242,23258,27678
4262,-428,23262,27687
4263,-947,23256,27677
4264,-1989,23253,27674
4265,-1260,23253,27667
4266,-1677,23253,27667
4267,-1970,23244,27654
4268,-3275,23247,27647
4269,-4419,23240,27637
4270,-4179,23241,27635
4271,-3913,23239,27638
4272,-4182,23237,27634
4273,-4724,23241,27636
4274,-5665,23241,27643
4275,-3790,23246,27640
4276,-1988,23246,27648
4277,-1852,23245,27659
4278,-1388,23250,27664
4279,-1933,23254,27669
4280,-1832,23261,27674
4281,-975,23258,27683
4282,-1811,23260,27695
4283,-1620,23268,27699
4284,-1140,23275,27704
4285,-2225,23266,27711
4286,-2675,23273,27722
4287,-4239,23271,27730
4288,-3198,23281,27736
4289,-3242,23279,27744
4290,-2743,23292,27751
4291,-2178,23290,27754
4292,-2064,23287,27759
4293,-1884,23290,27776
4294,899,23296,27775
4295,1718,23302,27781
4296,1425,23300,27788
4297,2020,23299,27785
4298,1986,23299,27793
4299,1052,23304,27793
4300,515,23303,27796
4301,-60,23306,27802
4302,749,23306,27813
4303,249,23310,27816
4304,-398,23312,27815
4305,-647,23316,27823
4306,-1026,23317,27829
4307,512,23313,27834
4308,1326,23322,27842
4309,1155,23324,27842
4310,1126,23325,27849
4311,2356,23317,27846
4312,1601,23319,27833
4313,618,23306,27800
4314,-27,23282,27758
4315,1094,23270,27708
4316,1059,23243,27656
4317,-122,23232,27621
4318,-437,23216,27589
4319,-1401,23206,27564
4320,-432,23204,27539
4321,195,23195,27534
4322,-280,23195,27524
4323,-767,23194,27519
4324,-789,23198,27523
4325,-818,23194,27528
4326,-800,23198,27536
4327,-801,23201,27543
4328,-2073,23210,27553
4329,-1883,23210,27562
4330,-1840,23209,27572
4331,-2175,23219,27579
4332,-536,23218,27580
4333,-712,23219,27587
4334,-385,23224,27594
4335,275,23223,27595
4336,-1902,23225,27606
4337,-3566,23231,27612
4338,-2953,23235,27622
4339,-2181,23242,27635
4340,-4144,23238,27641
4341,-3789,23246,27646
4342,-4028,23243,27650
4343,-3830,23243,27648
4344,-1501,23239,27642
4345,204,23238,27640
4346,583,23239,27635
4347,973,23233,27625
4348,1268,23229,27620
4349,2773,23226,27612
4350,1667,23225,27615
4351,583,23225,27615
4352,824,23229,27614
4353,419,23230,27622
4354,-230,23228,27619
4355,215,23228,27628
4356,-770,23232,27631
4357,4,23237,27641
4358,4,23237,27642
4359,-503,23241,27651
4360,-1428,23245,27657
4361,-907,23248,27670
4362,1009,23250,27670
4363,1004,23252,27680
4364,1078,23258,27686
4365,2086,23257,27698
4366,3021,23257,27703
4367,2839,23263,27705
4368,2323,23267,27715
4369,2397,23274,27720
4370,1441,23271,27729
4371,1381,23277,27741
4372,72,23275,27740
4373,-1289,23279,27749
4374,-1776,23282,27753
4375,-1728,23284,27757
4376,-3021,23286,27764
4377,-1791,23285,27762
4378,-2824,23287,27772
4379,-1521,23287,27776
4380,-1256,23286,27775
4381,-1102,23293,27779
4382,-651,23289,27783
4383,543,23294,27790
4384,551,23292,27789
4385,131,23294,27798
4386,91,23302,27806
4387,-1283,23299,27806
4388,-1083,23302,27823
4389,-1587,23306,27822
4390,-2740,23308,27820
4391,-2818,23305,27812
4392,-2073,23290,27787
4393,-1883,23277,27747
4394,-1840,23257,27691
4395,-2175,23234,27650
4396,-536,23221,27603
4397,-712,23208,27578
4398,-385,23195,27546
4399,275,23189,27526
4400,-1902,23182,27510
4401,-3566,23179,27501
4402,-2953,23174,27491
4403,-2181,23172,27497
4404,-4144,23178,27494
4405,-3789,23183,27495
4406,-4028,23182,27511
4407,-3830,23187,27510
4408,-3240,23187,27519
4409,-2356,23190,27525
4410,-817,23187,27527
4411,-407,23191,27529
4412,122,23194,27532
4413,753,23188,27534
4414,-1,23191,27529
4415,-1576,23197,27544
4416,-403,23199,27553
4417,-1277,23199,27553
4418,-3594,23202,27567
4419,-3766,23211,27577
4420,-5060,23207,27585
4421,-5234,23213,27589
4422,-5212,23208,27581
4423,-5329,23213,27587
4424,4426,23208,27585
4425,5267,23206,27581
4426,5421,23209,27568
4427,5413,23204,27571
4428,5799,23205,27566
4429,5658,23198,27565
4430,5646,23201,27564
4431,5873,23202,27564
4432,5747,23201,27566
4433,4908,23200,27573
4434,5126,23203,27570
4435,7185,23200,27580
4436,7963,23209,27579
4437,7574,23212,27590
4438,7536,23210,27591
4439,7687,23217,27601
4440,4010,23216,27603
4441,3551,23222,27617
4442,4004,23222,27618
4443,1953,23219,27629
4444,1265,23231,27635
4445,1965,23233,27640
4446,1002,23231,27648
4447,874,23233,27656
4448,1326,23243,27661
4449,829,23246,27670
4450,199,23241,27674
4451,2175,23245,27681
4452,3024,23249,27690
4453,2741,23253,27690
4454,2842,23253,27692
4455,3410,23251,27695
4456,4085,23256,27702
4457,4123,23251,27701
4458,4371,23256,27707
4459,5155,23255,27714
4460,6230,23261,27711
4461,6056,23255,27710
4462,5900,23263,27719
4463,5762,23264,27721
4464,5959,23260,27727
4465,5839,23266,27738
4466,5163,23270,27734
4467,5435,23268,27743
4468,5918,23270,27752
4469,5605,23277,27752
4470,6450,23278,27761
4471,7114,23279,27766
4472,-2845,23278,27761
4473,-2382,23272,27750
4474,-1656,23263,27718
4475,391,23239,27676
4476,477,23226,27631
4477,1416,23206,27592
4478,1516,23195,27561
4479,1930,23180,27539
4480,677,23180,27511
4481,1058,23168,27491
4482,1364,23167,27478
4483,574,23164,27475
4484,1375,23161,27466
4485,1304,23161,27474
4486,1608,23164,27479
4487,2743,23165,27478
4488,3423,23170,27486
4489,4301,23174,27492
4490,4802,23169,27493
4491,5353,23170,27497
4492,4231,23173,27502
4493,4583,23168,27502
4494,4523,23176,27505
4495,3480,23174,27506
4496,3789,23175,27508
4497,2836,23175,27517
4498,3385,23180,27522
4499,1921,23182,27535
4500,1267,23190,27541
4501,1356,23188,27546
4502,2554,23194,27553
4503,4242,23193,27557
4504,5759,23191,27555
4505,7372,23193,27552
4506,7512,23188,27549
4507,7576,23190,27544
4508,6850,23188,27543
4509,6052,23184,27539
4510,7391,23186,27537
4511,6977,23186,27537
4512,5996,23181,27530
4513,5847,23190,27539
4514,6069,23187,27544
4515,6419,23183,27541
4516,5654,23189,27552
4517,4974,23191,27559
4518,5276,23194,27556
4519,4779,23195,27561
4520,1864,23199,27573
4521,1093,23200,27572
4522,579,23200,27584
4523,515,23205,27591
4524,-544,23209,27601
4525,765,23213,27605
4526,2197,23216,27611
4527,1209,23211,27617
4528,64,23218,27626
4529,529,23223,27633
4530,2459,23225,27636
4531,2341,23218,27636
4532,2619,23229,27649
4533,2143,23229,27654
4534,3891,23231,27650
4535,2181,23235,27660
4536,-6588,23233,27663
4537,-7090,23234,27668
4538,-8349,23232,27669
4539,-9160,23240,27674
4540,-9347,23237,27674
4541,-9758,23237,27682
4542,-10893,23240,27684
4543,-10694,23244,27690
4544,-11419,23242,27693
4545,-11320,23242,27692
4546,-11476,23242,27696
4547,-11232,23247,27702
4548,-8455,23251,27707
4549,-8350,23249,27713
4550,-6038,23255,27718
4551,-4698,23252,27719
4552,-3494,23255,27731
4553,-2851,23257,27730
4554,-2831,23263,27740
4555,-2818,23259,27736
4556,-2206,23249,27719
4557,-2644,23241,27684
4558,-3123,23229,27660
4559,-4466,23214,27620
4560,-4106,23197,27584
4561,-3195,23187,27549
4562,-3846,23180,27528
4563,-4260,23167,27509
4564,-3051,23167,27493
4565,-1528,23159,27482
4566,235,23162,27481
4567,173,23155,27482
4568,-4131,23162,27479
4569,-3870,23164,27487
4570,-2498,23158,27497
4571,-1010,23172,27506
4572,105,23171,27505
4573,454,23176,27511
4574,1377,23172,27510
4575,1830,23173,27514
4576,3116,23175,27512
4577,2918,23171,27517
4578,2871,23174,27525
4579,2286,23179,27528
4580,1937,23181,27544
4581,966,23181,27546
4582,82,23190,27552
4583,903,23189,27563
4584,2078,23189,27570
4585,2283,23193,27566
4586,3410,23190,27567
4587,2441,23193,27568
4588,4214,23184,27557
4589,5310,23186,27554
4590,5526,23178,27547
4591,6155,23183,27551
4592,6167,23181,27541
4593,4854,23178,27545
4594,3809,23182,27551
4595,2874,23182,27548
4596,2070,23177,27554
4597,2112,23183,27558
4598,1557,23190,27561
4599,532,23183,27573
4600,591,23190,27573
4601,386,23191,27573
4602,748,23196,27583
4603,2199,23196,27583
4604,2005,23200,27590
4605,3055,23205,27596
4606,3810,23206,27606
4607,4922,23205,27611
4608,4667,23207,27615
4609,4574,23212,27630
4610,4452,23214,27632
4611,5246,23213,27632
4612,5661,23220,27643
4613,4620,23219,27651
4614,4012,23222,27652
4615,2397,23225,27660
4616,4743,23223,27661
4617,3559,23228,27663
4618,2097,23226,27667
4619,2045,23231,27673
4620,1645,23235,27680
4621,1706,23236,27674
4622,1917,23232,27682
4623,1277,23234,27684
4624,528,23238,27682
4625,-648,23232,27690
4626,-1057,23236,27693
4627,346,23245,27696
4628,560,23240,27701
4629,422,23239,27702
4630,651,23248,27713
4631,96,23255,27715
4632,-5974,23244,27724
4633,-5631,23252,27729
4634,-6431,23249,27731
4635,-4961,23253,27740
4636,-5270,23258,27745
4637,-7174,23258,27747
4638,-6545,23260,27750
4639,-6634,23253,27740
4640,-8509,23248,27721
4641,-9216,23237,27681
4642,-10204,23221,27650
4643,-9573,23203,27608
4644,-9639,23191,27581
4645,-11190,23181,27554
4646,-10277,23174,27533
4647,-9559,23167,27518
4648,-9078,23165,27505
4649,-8033,23164,27495
4650,-8092,23160,27493
4651,-5440,23160,27496
4652,-2884,23166,27498
4653,-3280,23165,27504
4654,-3874,23165,27507
4655,-3903,23163,27515
4656,-2699,23172,27521
4657,-1880,23168,27515
4658,-1686,23168,27520
4659,-1007,23168,27517
4660,485,23165,27523
4661,-869,23170,27522
4662,-889,23173,27531
4663,-474,23173,27533
4664,4146,23180,27542
4665,3821,23178,27549
4666,3600,23180,27554
4667,3384,23188,27565
4668,5013,23190,27570
4669,5259,23192,27570
4670,5312,23191,27568
4671,4996,23184,27572
4672,5230,23184,27563
4673,5591,23179,27560
4674,5548,23180,27558
4675,6801,23181,27558
4676,6132,23179,27555
4677,4890,23179,27551
4678,5960,23180,27555
4679,4319,23179,27556
4680,4995,23179,27561
4681,5878,23184,27559
4682,5744,23182,27565
4683,5152,23185,27571
4684,4017,23184,27576
4685,4419,23187,27578
4686,4437,23189,27582
4687,4199,23191,27589
4688,3728,23197,27599
4689,4420,23196,27601
4690,4049,23194,27608
4691,4860,23202,27619
4692,5934,23211,27623
4693,4934,23210,27621
4694,5437,23210,27640
4695,5663,23212,27645
4696,5725,23214,27644
4697,4646,23212,27653
4698,3908,23223,27659
4699,4527,23217,27660
4700,5152,23220,27669
4701,4376,23223,27671
4702,3064,23224,27674
4703,2401,23221,27677
4704,1547,23232,27684
4705,1418,23227,27687
4706,2287,23232,27692
4707,2636,23229,27685
4708,983,23232,27696
4709,1901,23233,27694
4710,3377,23234,27704
4711,3899,23237,27703
4712,1423,23235,27706
4713,1610,23238,27711
4714,2603,23239,27713
4715,2339,23244,27717
4716,3221,23242,27726
4717,2384,23243,27728
4718,1542,23248,27737
4719,2111,23252,27743
4720,2247,23251,27755
4721,2029,23255,27746
4722,766,23260,27759
4723,17,23260,27762
4724,-56,23260,27773
4725,-994,23263,27757
4726,-1210,23255,27753
4727,-1490,23245,27725
4728,-1695,23225,27682
4729,-1191,23214,27645
4730,-302,23197,27611
4731,276,23186,27580
4732,465,23176,27560
4733,1678,23169,27539
4734,1527,23163,27527
4735,911,23157,27516
4736,637,23160,27510
4737,-621,23160,27514
4738,-793,23158,27510
4739,-2068,23157,27520
4740,-2679,23166,27519
4741,-3419,23162,27523
4742,-2901,23170,27529
4743,-3508,23164,27528
4744,-3908,23173,27536
4745,-2855,23166,27539
4746,-2854,23168,27537
4747,-1811,23171,27535
4748,-2523,23171,27544
4749,-3751,23176,27542
4750,-4016,23174,27552
4751,-3521,23180,27561
4752,-1837,23176,27568
4753,-1053,23183,27570
4754,-1826,23187,27578
4755,-1265,23187,27583
4756,-1068,23188,27585
4757,-1556,23189,27584
4758,-2405,23189,27585
4759,-2013,23183,27574
4760,-3184,23186,27576
4761,-3036,23174,27572
4762,-722,23182,27566
4763,-133,23179,27568
4764,1319,23184,27570
4765,2105,23178,27564
4766,2709,23182,27573
4767,3429,23182,27573
4768,3761,23186,27577
4769,2938,23186,27584
4770,2103,23191,27591
4771,1711,23192,27592
4772,2007,23193,27590
4773,415,23193,27602
4774,-84,23198,27604
4775,96,23197,27610
4776,513,23200,27619
4777,1324,23208,27631
4778,991,23206,27631
4779,604,23212,27635
4780,800,23210,27640
4781,1330,23212,27647
4782,1397,23212,27658
4783,1022,23213,27660
4784,-428,23220,27668
4785,-883,23220,27669
4786,-1104,23221,27678
4787,-2746,23224,27680
4788,-3115,23231,27686
4789,-2807,23224,27684
4790,-2382,23230,27691
4791,-3260,23229,27694
4792,-3703,23231,27697
4793,-4474,23227,27706
4794,-5393,23234,27703
4795,-5619,23235,27710
4796,-5167,23232,27711
4797,-4908,23238,27713
4798,-5502,23240,27715
4799,-5310,23241,27717
4800,-4948,23240,27727
4801,-4590,23242,27729
4802,-4572,23246,27728
4803,-5297,23248,27741
4804,-5317,23247,27744
4805,-6517,23250,27748
4806,-6869,23255,27754
4807,-5710,23254,27756
4808,5216,23258,27765
4809,4911,23258,27766
4810,4225,23262,27777
4811,2851,23269,27779
4812,2326,23263,27769
4813,1532,23253,27754
4814,1006,23239,27720
4815,2479,23225,27678
4816,955,23206,27650
4817,841,23199,27615
4818,-550,23187,27585
4819,-1216,23178,27568
4820,-1500,23170,27548
4821,-3156,23163,27532
4822,-3168,23166,27526
4823,-2741,23160,27522
4824,-3109,23165,27525
4825,-2774,23161,27521
4826,-2709,23168,27527
4827,-2544,23165,27530
4828,-1934,23168,27541
4829,-919,23173,27542
4830,-126,23173,27542
4831,718,23173,27547
4832,1929,23176,27549
4833,2979,23168,27544
4834,2393,23171,27550
4835,2628,23172,27553
4836,3475,23173,27559
4837,4276,23175,27565
4838,5545,23183,27574
4839,4559,23184,27579
4840,3696,23188,27586
4841,3089,23187,27593
4842,4170,23188,27590
4843,5209,23192,27592
4844,3560,23186,27588
4845,5186,23190,27590
4846,4798,23185,27580
4847,4368,23183,27578
4848,4983,23180,27572
4849,3983,23183,27577
4850,3861,23175,27570
4851,3854,23182,27572
4852,4975,23176,27572
4853,5996,23181,27577
4854,6468,23184,27581
4855,7890,23180,27577
4856,-3086,23184,27581
4857,-4121,23190,27589
4858,-3642,23188,27587
4859,-3446,23192,27600
4860,-4219,23193,27600
4861,-3045,23197,27617
4862,-3390,23198,27612
4863,-1818,23203,27624
4864,-1497,23200,27627
4865,-1650,23206,27637
4866,-1675,23209,27637
4867,292,23214,27644
4868,1617,23215,27653
4869,1802,23213,27653
4870,2410,23216,27665
4871,2438,23219,27665
4872,3663,23224,27672
4873,4461,23221,27676
4874,4032,23228,27681
4875,4418,23224,27680
4876,4031,23228,27686
4877,5606,23224,27689
4878,5296,23234,27694
4879,4918,23233,27695
4880,5367,23230,27697
4881,6342,23232,27709
4882,5475,23238,27716
4883,6459,23234,27718
4884,6239,23238,27724
4885,5662,23243,27721
4886,5054,23249,27729
4887,5337,23241,27736
4888,4211,23249,27741
4889,4923,23246,27746
4890,5690,23256,27751
4891,4938,23255,27755
4892,4491,23255,27757
4893,4518,23255,27759
4894,3869,23254,27747
4895,3040,23242,27719
4896,2287,23231,27684
4897,1495,23217,27653
4898,1893,23204,27618
4899,1690,23193,27594
4900,2559,23181,27570
4901,3876,23181,27560
4902,3902,23176,27547
4903,5715,23174,27539
4904,-1145,23171,27536
4905,-1022,23172,27537
4906,-1302,23173,27542
4907,-2103,23172,27545
4908,-3455,23184,27557
4909,-2645,23180,27562
4910,-2027,23184,27563
4911,-596,23186,27565
4912,-1485,23183,27574
4913,-2348,23186,27572
4914,-2441,23186,27577
4915,-2720,23187,27576
4916,-2277,23192,27585
4917,-3403,23189,27588
4918,-3615,23195,27601
4919,-4228,23202,27617
4920,-4735,23204,27623
4921,-5174,23206,27631
4922,-6217,23209,27629
4923,-6053,23208,27631
4924,-4543,23202,27630
4925,-4885,23206,27634
4926,-2885,23205,27624
4927,-3145,23198,27615
4928,-3570,23202,27617
4929,-2942,23196,27608
4930,-2938,23203,27613
4931,-2902,23195,27609
4932,-3409,23193,27615
4933,-3068,23199,27617
4934,-2690,23200,27615
4935,-3162,23202,27620
4936,-3765,23205,27621
4937,-4021,23204,27626
4938,-3614,23202,27631
4939,-4337,23209,27636
4940,-4693,23211,27644
4941,-4944,23212,27650
4942,-3637,23214,27656
4943,-2645,23213,27660
4944,-2542,23217,27664
4945,-3613,23223,27671
4946,-3422,23221,27674
4947,-2820,23227,27682
4948,-2335,23233,27689
4949,-769,23226,27694
4950,143,23235,27699
4951,186,23234,27699
4952,816,23238,27707
4953,1205,23234,27710
4954,2318,23236,27715
4955,3408,23239,27720
4956,3268,23239,27720
4957,2572,23239,27730
4958,1210,23241,27728
4959,-486,23247,27732
4960,-1063,23245,27734
4961,-1822,23249,27734
4962,-1300,23249,27739
4963,-1530,23252,27744
4964,277,23248,27744
4965,-1521,23256,27756
4966,-305,23255,27758
4967,372,23255,27764
4968,-353,23260,27768
4969,-1587,23266,27776
4970,822,23263,27779
4971,1758,23265,27781
4972,-950,23260,27780
4973,-4108,23263,27768
4974,-4348,23250,27746
4975,-2088,23236,27713
4976,-1845,23215,27676
4977,-2534,23209,27641
4978,-3432,23194,27610
4979,-3639,23187,27590
4980,-3268,23178,27573
4981,-1555,23174,27557
4982,-1384,23166,27547
4983,-2445,23166,27538
4984,-2155,23170,27537
4985,-262,23165,27539
4986,303,23169,27545
4987,114,23173,27551
4988,-856,23172,27558
4989,-653,23175,27557
4990,-1938,23178,27565
4991,-2266,23182,27563
4992,-1467,23178,27567
4993,-2093,23180,27569
4994,-3323,23178,27568
4995,-2845,23181,27571
4996,-2520,23186,27576
4997,-1099,23189,27581
4998,-880,23183,27585
4999,-1218,23193,27600
5000,-3709,23200,27608
5001,-2361,23196,27605
5002,-2138,23197,27618
5003,-1683,23199,27618
5004,-784,23199,27615
5005,-754,23193,27610
5006,-588,23194,27612
5007,355,23191,27606
5008,-1614,23193,27599
5009,-2121,23190,27600
5010,-2197,23192,27601
5011,-1858,23191,27604
5012,-1692,23192,27602
5013,-3042,23190,27603
5014,-3837,23196,27613
5015,-4190,23196,27613
5016,-297,23196,27618
5017,-281,23201,27620
5018,629,23202,27624
5019,1589,23201,27627
5020,1239,23204,27636
5021,1286,23207,27645
5022,1866,23206,27648
5023,3580,23215,27662
5024,2914,23214,27655
5025,4220,23220,27669
5026,4246,23222,27677
5027,4681,23225,27682
5028,3552,23226,27682
5029,3583,23231,27693
5030,2419,23229,27691
5031,2565,23231,27704
5032,4333,23236,27710
5033,2896,23234,27715
5034,742,23236,27711
5035,1568,23237,27722
5036,3478,23239,27715
5037,2520,23240,27730
5038,2412,23241,27727
5039,2480,23245,27731
5040,4857,23243,27729
5041,4121,23241,27731
5042,4496,23246,27740
5043,5278,23249,27737
5044,4105,23248,27744
5045,3816,23247,27751
5046,3414,23254,27753
5047,2871,23258,27756
5048,-3165,23255,27766
5049,-1564,23257,27768
5050,-1639,23259,27772
5051,-1558,23266,27786
5052,-1064,23265,27781
5053,-848,23267,27784
5054,-1634,23258,27766
5055,-28,23251,27744
5056,-507,23236,27711
5057,-1185,23220,27667
5058,-884,23208,27642
5059,-1522,23197,27613
5060,-1159,23193,27588
5061,-739,23181,27568
5062,-172,23179,27560
5063,1216,23171,27544
5064,1567,23171,27544
5065,2281,23171,27540
5066,2109,23171,27538
5067,2635,23172,27547
5068,2706,23174,27550
5069,1603,23173,27552
5070,106,23176,27556
5071,504,23181,27559
5072,-1105,23177,27560
5073,-1486,23185,27562
5074,-1989,23178,27566
5075,-2281,23183,27563
5076,-3015,23180,27571
5077,-3511,23184,27573
5078,-3459,23187,27580
5079,-2800,23183,27584
5080,-1716,23188,27593
5081,-1345,23190,27600
5082,-2136,23193,27604
5083,-2695,23195,27610
5084,-1491,23200,27613
5085,-1762,23196,27607
5086,-2473,23197,27608
5087,-1584,23195,27605
5088,-1165,23192,27603
5089,-1192,23190,27597
5090,-919,23189,27597
5091,-808,23186,27597
5092,2,23189,27591
5093,-281,23191,27596
5094,1744,23194,27598
5095,2315,23194,27599
5096,3397,23191,27598
5097,3724,23197,27605
5098,3560,23200,27607
5099,2481,23198,27613
5100,1614,23201,27621
5101,902,23198,27621
5102,2102,23203,27628
5103,2169,23205,27636
5104,1846,23206,27639
5105,2173,23208,27641
5106,3050,23216,27654
5107,3331,23214,27657
5108,3957,23213,27658
5109,1278,23219,27666
5110,1877,23220,27668
5111,2668,23219,27671
5112,2424,23218,27679
5113,1157,23226,27684
5114,1354,23224,27683
5115,670,23230,27688
5116,1422,23226,27687
5117,666,23232,27695
5118,875,23229,27697
5119,2140,23227,27700
5120,795,23234,27701
5121,1997,23230,27700
5122,2200,23231,27710
5123,2944,23236,27709
5124,3000,23237,27709
5125,4189,23236,27713
5126,3317,23234,27719
5127,3309,23239,27723
5128,3321,23239,27729
5129,1947,23239,27736
5130,2062,23247,27741
5131,1950,23251,27739
5132,1496,23246,27748
5133,2043,23257,27758
5134,3104,23257,27754
5135,1453,23255,27752
5136,2098,23246,27742
5137,2832,23239,27717
5138,3705,23225,27679
5139,3520,23210,27644
5140,2276,23194,27614
5141,3300,23185,27589
5142,2788,23178,27561
5143,2213,23169,27550
5144,-5824,23167,27540
5145,-6048,23167,27527
5146,-5705,23165,27527
5147,-4774,23163,27531
5148,-3817,23168,27532
5149,-4140,23178,27535
5150,-4045,23169,27544
5151,-1832,23174,27554
5152,-87,23179,27554
5153,506,23175,27554
5154,-456,23180,27563
5155,581,23179,27559
5156,321,23184,27558
5157,966,23179,27562
5158,507,23184,27568
5159,1163,23184,27580
5160,-1373,23188,27583
5161,-2491,23193,27593
5162,-2252,23191,27599
5163,-2742,23198,27611
5164,-3533,23191,27605
5165,-3732,23191,27599
5166,-4467,23191,27600
5167,-4431,23188,27591
5168,-3633,23188,27587
5169,-2188,23179,27578
5170,-1551,23186,27578
5171,-786,23179,27577
5172,-1366,23183,27574
5173,-1197,23172,27578
5174,696,23185,27575
5175,1524,23182,27574
5176,1649,23180,27576
5177,2066,23183,27582
5178,1503,23183,27584
5179,2088,23185,27584
5180,1980,23186,27593
5181,2474,23191,27593
5182,1915,23189,27598
5183,2189,23194,27603
5184,2468,23193,27603
5185,4197,23193,27614
5186,5816,23201,27623
5187,4775,23199,27627
5188,5886,23205,27631
5189,5016,23206,27631
5190,4012,23209,27637
5191,3752,23207,27640
5192,5281,23209,27646
5193,5485,23206,27650
5194,5694,23212,27650
5195,5298,23214,27652
5196,5147,23211,27655
5197,4951,23214,27666
5198,4563,23212,27670
5199,3804,23216,27669
5200,2607,23215,27670
5201,3533,23217,27672
5202,2556,23220,27670
5203,1702,23223,27679
5204,1940,23224,27678
5205,3315,23220,27682
5206,2672,23219,27691
5207,1438,23226,27699
5208,6410,23225,27696
5209,6806,23227,27698
5210,6687,23229,27701
5211,5521,23227,27706
5212,5080,23231,27701
5213,6077,23216,27682
5214,4964,23209,27664
5215,3177,23199,27630
5216,2602,23182,27599
5217,1662,23176,27568
5218,-36,23164,27538
5219,-1140,23154,27518
5220,-1020,23149,27498
5221,144,23134,27479
5222,539,23137,27473
5223,-13,23140,27474
5224,-462,23136,27473
5225,55,23136,27472
5226,1352,23135,27477
5227,985,23140,27480
5228,-647,23136,27481
5229,-1251,23144,27486
5230,-511,23144,27493
5231,-40,23145,27490
5232,-148,23144,27492
5233,53,23141,27492
5234,367,23145,27498
5235,179,23143,27498
5236,1040,23147,27507
5237,136,23150,27508
5238,730,23153,27517
5239,-194,23156,27524
5240,-1484,23158,27531
5241,-1108,23157,27534
5242,-1091,23162,27534
5243,-1091,23158,27528
5244,-1450,23156,27520
5245,-2481,23154,27523
5246,-3755,23151,27519
5247,-3787,23150,27516
5248,-3380,23151,27511
5249,-3292,23146,27510
5250,-3297,23150,27512
5251,-2665,23149,27508
5252,-2293,23149,27512
5253,-832,23150,27515
5254,-292,23154,27516
5255,602,23151,27525
5256,1825,23155,27524
5257,2702,23158,27531
5258,1449,23163,27533
5259,2808,23163,27535
5260,2729,23167,27543
5261,2785,23164,27545
5262,3907,23171,27552
5263,3490,23173,27557
5264,1929,23174,27561
5265,2119,23173,27571
5266,2315,23177,27574
5267,1143,23180,27582
5268,1399,23181,27583
5269,1552,23180,27591
5270,3090,23183,27600
5271,4433,23188,27598
5272,4365,23187,27600
5273,5209,23192,27605
5274,4220,23190,27607
5275,4608,23188,27611
5276,5155,23194,27614
5277,2342,23197,27612
5278,2212,23198,27621
5279,3509,23197,27626
5280,3458,23202,27635
5281,3076,23201,27635
5282,2926,23203,27647
5283,2260,23204,27645
5284,3604,23208,27649
5285,4559,23207,27652
5286,4618,23211,27657
5287,5632,23212,27655
5288,5829,23209,27666
5289,5511,23213,27657
5290,5561,23198,27637
5291,5293,23190,27617
5292,4126,23181,27576
5293,2742,23167,27547
5294,1780,23153,27513
5295,1277,23147,27487
5296,2557,23131,27460
5297,3403,23122,27443
5298,4463,23120,27436
5299,5585,23117,27416
5300,5723,23113,27422
5301,6197,23115,27415
5302,5800,23118,27421
5303,6464,23122,27418
5304,-4577,23116,27428
5305,-4532,23120,27433
5306,-4044,23122,27431
5307,-4928,23123,27435
5308,-5813,23119,27436
5309,-5070,23115,27435
5310,-3905,23120,27432
5311,-4341,23120,27438
5312,-4868,23119,27444
5313,-3832,23124,27445
5314,-2539,23125,27448
5315,-3235,23125,27460
5316,-3025,23133,27473
5317,-3312,23130,27472
5318,-3345,23143,27477
5319,-3441,23136,27478
5320,-2900,23138,27482
5321,-2309,23139,27478
5322,-1495,23138,27478
5323,-1329,23137,27474
5324,-1637,23132,27469
5325,-2357,23132,27468
5326,-2795,23128,27467
