Index,Snore_Data,RED,IR
1,-49,27029.0,30064.0
2,62,27034.0,30068.0
3,-113,27032.0,30068.0
4,156,27031.0,30073.0
5,-246,27033.0,30071.0
6,344,27025.0,30074.0
7,-537,27034.0,30070.0
8,910,27029.0,30072.0
9,-1827,27031.0,30078.0
10,14557,27032.0,30082.0
11,16249,27029.0,30080.0
12,18185,27030.0,30077.0
13,25644,27038.0,30081.0
14,21206,27036.0,30088.0
15,14288,27029.0,30086.0
16,19064,27034.0,30078.0
17,21123,27039.0,30087.0
18,15244,27033.0,30090.0
19,16376,27035.0,30089.0
20,17644,27039.0,30092.0
21,19416,27034.0,30093.0
22,13688,27044.0,30081.0
23,9844,27036.0,30095.0
24,13961,27036.0,30099.0
25,16733,27030.0,30094.0
26,17071,27037.0,30097.0
27,16320,27039.0,30098.0
28,13466,27040.0,30103.0
29,11752,27037.0,30107.0
30,12893,27033.0,30105.0
31,4015,27041.0,30107.0
32,224,27044.0,30099.0
33,6360,27040.0,30105.0
34,1777,27041.0,30120.0
35,5702,27035.0,30116.0
36,-575,27037.0,30109.0
37,-717,27042.0,30114.0
38,4868,27043.0,30123.0
39,-1635,27041.0,30129.0
40,-6438,27040.0,30130.0
41,-2993,27041.0,30122.0
42,-4579,27045.0,30124.0
43,-3139,27040.0,30133.0
44,-2703,27036.0,30138.0
45,-3867,27046.0,30116.0
46,-8254,27041.0,30120.0
47,-2551,27037.0,30116.0
48,-4606,27034.0,30108.0
49,-7339,27023.0,30089.0
50,-5997,27019.0,30086.0
51,-9078,27026.0,30075.0
52,-7175,27018.0,30068.0
53,-12033,27019.0,30067.0
54,-10609,27016.0,30056.0
55,-14812,27015.0,30059.0
56,-15896,27012.0,30058.0
57,-20271,26995.0,30067.0
58,-19747,27011.0,30054.0
59,-19998,27005.0,30052.0
60,-20004,27011.0,30055.0
61,-21445,27009.0,30054.0
62,-25458,27009.0,30054.0
63,-17242,26993.0,30053.0
64,-25524,27006.0,30042.0
65,-24056,27002.0,30050.0
66,-20692,26999.0,30044.0
67,-25029,26997.0,30036.0
68,-23374,27002.0,30035.0
69,-23362,27003.0,30038.0
70,-26603,27000.0,30043.0
71,-21112,26996.0,30041.0
72,-21667,27000.0,30035.0
73,-28292,27007.0,30030.0
74,-28015,26999.0,30049.0
75,-30384,26994.0,30047.0
76,-31236,26998.0,30044.0
77,-29933,27002.0,30042.0
78,28607,27001.0,30041.0
79,-32131,26995.0,30043.0
80,32023,26985.0,30046.0
81,25950,26998.0,30028.0
82,-32076,26997.0,30035.0
83,30054,26993.0,30033.0
84,31974,26989.0,30038.0
85,-31278,26985.0,30028.0
86,28646,26995.0,30034.0
87,31303,26989.0,30036.0
88,30183,26995.0,30037.0
89,26248,26995.0,30031.0
90,27985,27003.0,30025.0
91,24130,26995.0,30040.0
92,18922,26993.0,30040.0
93,23547,26988.0,30044.0
94,21819,26992.0,30042.0
95,13467,26993.0,30039.0
96,21197,26997.0,30050.0
97,18094,26993.0,30047.0
98,23450,26997.0,30046.0
99,21349,26999.0,30049.0
100,18845,26996.0,30049.0
101,25790,26993.0,30055.0
102,9962,27000.0,30051.0
103,15550,26994.0,30054.0
104,16429,27001.0,30054.0
105,19538,27000.0,30055.0
106,17536,26996.0,30062.0
107,19820,26999.0,30056.0
108,19822,26994.0,30061.0
109,23105,26998.0,30064.0
110,18174,26996.0,30067.0
111,18337,26998.0,30064.0
112,20471,26997.0,30067.0
113,15100,27005.0,30066.0
114,18628,27000.0,30070.0
115,14931,26998.0,30071.0
116,22524,27000.0,30065.0
117,20343,26997.0,30071.0
118,17548,27010.0,30070.0
119,11960,26999.0,30074.0
120,12133,27001.0,30079.0
121,11293,27003.0,30081.0
122,3584,27009.0,30083.0
123,9448,27004.0,30085.0
124,8943,26994.0,30088.0
125,5840,27004.0,30085.0
126,3197,27009.0,30089.0
127,5735,27006.0,30088.0
128,2634,27006.0,30097.0
129,6366,27005.0,30087.0
130,5499,27005.0,30094.0
131,3522,27010.0,30099.0
132,4889,27006.0,30099.0
133,1825,27004.0,30101.0
134,5448,27005.0,30097.0
135,3793,27012.0,30103.0
136,1169,27007.0,30114.0
137,688,27007.0,30111.0
138,2750,27013.0,30108.0
139,1229,27012.0,30110.0
140,1503,27010.0,30106.0
141,-1094,27007.0,30104.0
142,-1420,26998.0,30099.0
143,112,26999.0,30082.0
144,-207,26999.0,30073.0
145,5805,26989.0,30074.0
146,3878,26986.0,30052.0
147,4975,26988.0,30043.0
148,5254,26986.0,30037.0
149,1036,26986.0,30038.0
150,27288,26983.0,30038.0
151,29202,26976.0,30038.0
152,31244,26976.0,30036.0
153,26404,26976.0,30030.0
154,30400,26980.0,30032.0
155,23401,26978.0,30038.0
156,27309,26975.0,30031.0
157,20128,26977.0,30023.0
158,23123,26975.0,30021.0
159,20857,26974.0,30027.0
160,22582,26973.0,30030.0
161,21612,26967.0,30020.0
162,18924,26969.0,30016.0
163,21521,26970.0,30010.0
164,18729,26970.0,30018.0
165,19177,26969.0,30013.0
166,9962,26971.0,30002.0
167,15550,26969.0,30012.0
168,16429,26969.0,30010.0
169,19538,26970.0,30016.0
170,17536,26965.0,30026.0
171,19820,26964.0,30016.0
172,19822,26965.0,30013.0
173,23105,26969.0,30013.0
174,18174,26964.0,30012.0
175,18337,26960.0,30010.0
176,20471,26959.0,30007.0
177,15100,26960.0,30000.0
178,18628,26959.0,30005.0
179,14931,26957.0,30012.0
180,22524,26959.0,30003.0
181,20343,26960.0,30002.0
182,18629,26960.0,30003.0
183,16409,26960.0,30011.0
184,19124,26965.0,30004.0
185,19768,26958.0,30009.0
186,13248,26965.0,29997.0
187,18142,26962.0,30014.0
188,13009,26963.0,30020.0
189,17907,26958.0,30017.0
190,11682,26959.0,30013.0
191,19235,26964.0,30011.0
192,16986,26964.0,30018.0
193,15116,26960.0,30025.0
194,15053,26960.0,30020.0
195,14586,26966.0,30019.0
196,17226,26969.0,30018.0
197,10020,26966.0,30026.0
198,15138,26965.0,30021.0
199,20680,26963.0,30022.0
200,19155,26964.0,30024.0
201,25017,26966.0,30031.0
202,21239,26963.0,30031.0
203,22489,26955.0,30044.0
204,24369,26966.0,30030.0
205,27675,26974.0,30040.0
206,26554,26962.0,30033.0
207,24545,26966.0,30037.0
208,24210,26966.0,30040.0
209,25875,26971.0,30041.0
210,28004,26966.0,30045.0
211,19933,26969.0,30045.0
212,21994,26973.0,30042.0
213,19754,26973.0,30046.0
214,-19767,26979.0,30052.0
215,-24263,26973.0,30058.0
216,-19317,26965.0,30058.0
217,-18423,26973.0,30058.0
218,-18844,26978.0,30059.0
219,-20728,26976.0,30064.0
220,-18681,26972.0,30067.0
221,-19248,26976.0,30065.0
222,-21238,26978.0,30067.0
223,-23519,26979.0,30070.0
224,-21062,26976.0,30075.0
225,-24554,26976.0,30074.0
226,-21291,26980.0,30074.0
227,-23999,26984.0,30079.0
228,-27073,26973.0,30089.0
229,-22119,26986.0,30083.0
230,-25171,26993.0,30069.0
231,-25136,26988.0,30086.0
232,-25530,26982.0,30092.0
233,-24176,26983.0,30095.0
234,-23467,26987.0,30092.0
235,-26601,26990.0,30094.0
236,-21150,26992.0,30098.0
237,-21676,26988.0,30105.0
238,-22343,26990.0,30101.0
239,-24371,26993.0,30108.0
240,-26228,26993.0,30113.0
241,-25593,26986.0,30113.0
242,-25389,26993.0,30118.0
243,-22067,26998.0,30122.0
244,-23227,27001.0,30126.0
245,-24835,26992.0,30124.0
246,16799,27000.0,30130.0
247,16377,27007.0,30114.0
248,13537,26997.0,30121.0
249,11642,26996.0,30124.0
250,14765,26991.0,30115.0
251,13559,26988.0,30100.0
252,20037,26989.0,30093.0
253,19354,26979.0,30081.0
254,18592,26974.0,30072.0
255,15793,26973.0,30059.0
256,18074,26977.0,30055.0
257,16863,26976.0,30054.0
258,18114,26966.0,30052.0
259,16246,26969.0,30048.0
260,17721,26970.0,30047.0
261,17226,26970.0,30058.0
262,15138,26970.0,30047.0
263,20680,26965.0,30042.0
264,19155,26969.0,30044.0
265,25017,26966.0,30047.0
266,21239,26964.0,30043.0
267,22489,26960.0,30042.0
268,24369,26962.0,30035.0
269,27675,26962.0,30039.0
270,26554,26964.0,30033.0
271,24545,26950.0,30031.0
272,24210,26954.0,30023.0
273,25875,26961.0,30029.0
274,28004,26955.0,30032.0
275,19933,26953.0,30029.0
276,21994,26957.0,30021.0
277,19754,26959.0,30025.0
278,22192,26954.0,30028.0
279,18298,26951.0,30026.0
280,16489,26952.0,30025.0
281,20982,26954.0,30021.0
282,18305,26954.0,30025.0
283,20638,26951.0,30027.0
284,20944,26947.0,30020.0
285,18314,26949.0,30018.0
286,20817,26947.0,30017.0
287,17719,26945.0,30023.0
288,17761,26946.0,30020.0
289,23253,26948.0,30013.0
290,20978,26943.0,30022.0
291,20986,26949.0,30013.0
292,16397,26947.0,30018.0
293,14527,26951.0,30018.0
294,1292,26945.0,30022.0
295,727,26944.0,30027.0
296,-1873,26945.0,30014.0
297,1359,26946.0,30016.0
298,1770,26949.0,30020.0
299,500,26945.0,30026.0
300,764,26950.0,30015.0
301,-2068,26947.0,30025.0
302,-1074,26947.0,30025.0
303,1182,26945.0,30027.0
304,-3074,26947.0,30028.0
305,-1396,26948.0,30030.0
306,-608,26949.0,30038.0
307,-1982,26950.0,30028.0
308,1056,26952.0,30036.0
309,-1216,26950.0,30035.0
310,1797,26955.0,30042.0
311,-290,26948.0,30046.0
312,1175,26952.0,30045.0
313,3454,26953.0,30040.0
314,265,26954.0,30041.0
315,704,26954.0,30049.0
316,-1830,26949.0,30051.0
317,56,26954.0,30047.0
318,-19,26954.0,30045.0
319,482,26957.0,30044.0
320,-860,26952.0,30054.0
321,-309,26950.0,30052.0
322,-2041,26956.0,30056.0
323,-5167,26959.0,30053.0
324,-5197,26959.0,30066.0
325,-6723,26955.0,30063.0
326,-3117,26964.0,30054.0
327,533,26960.0,30066.0
328,1347,26956.0,30068.0
329,-346,26957.0,30068.0
330,1859,26956.0,30070.0
331,71,26958.0,30070.0
332,4258,26959.0,30074.0
333,6216,26963.0,30074.0
334,4413,26960.0,30079.0
335,4679,26968.0,30063.0
336,2790,26965.0,30085.0
337,7547,26963.0,30089.0
338,7972,26969.0,30084.0
339,6708,26955.0,30094.0
340,8556,26973.0,30089.0
341,10859,26969.0,30095.0
342,1777,26965.0,30101.0
343,2024,26974.0,30086.0
344,1276,26970.0,30098.0
345,3921,26969.0,30104.0
346,2917,26967.0,30111.0
347,2951,26968.0,30108.0
348,5242,26972.0,30108.0
349,7462,26973.0,30105.0
350,7313,26977.0,30112.0
351,7714,26969.0,30118.0
352,8120,26968.0,30118.0
353,10134,26975.0,30118.0
354,7292,26973.0,30124.0
355,6944,26975.0,30131.0
356,4410,26973.0,30122.0
357,831,26980.0,30125.0
358,4826,26985.0,30138.0
359,5524,26981.0,30137.0
360,5464,26967.0,30145.0
361,5298,26980.0,30142.0
362,4700,26981.0,30138.0
363,2036,26979.0,30141.0
364,-2071,26978.0,30140.0
365,-1668,26972.0,30119.0
366,-5922,26975.0,30111.0
367,-3847,26968.0,30106.0
368,-6766,26964.0,30093.0
369,-6213,26957.0,30081.0
370,-2928,26955.0,30073.0
371,-2856,26956.0,30065.0
372,-1521,26949.0,30061.0
373,-5178,26947.0,30062.0
374,-1308,26947.0,30054.0
375,-971,26951.0,30057.0
376,1640,26949.0,30058.0
377,2365,26941.0,30059.0
378,2468,26944.0,30052.0
379,1404,26947.0,30050.0
380,-954,26945.0,30057.0
381,3306,26942.0,30051.0
382,4321,26944.0,30045.0
383,1983,26942.0,30039.0
384,-1002,26943.0,30040.0
385,-636,26943.0,30041.0
386,-2998,26933.0,30038.0
387,-3832,26939.0,30022.0
388,-4798,26938.0,30026.0
389,-367,26936.0,30029.0
390,16452,26931.0,30033.0
391,18112,26931.0,30031.0
392,16059,26937.0,30030.0
393,13567,26937.0,30033.0
394,15348,26929.0,30030.0
395,11884,26932.0,30028.0
396,16684,26931.0,30024.0
397,13126,26935.0,30026.0
398,14801,26929.0,30028.0
399,15555,26931.0,30023.0
400,13228,26937.0,30011.0
401,14750,26928.0,30021.0
402,9645,26926.0,30025.0
403,-1082,26920.0,30025.0
404,-1176,26925.0,30011.0
405,-188,26922.0,30017.0
406,2081,26928.0,30017.0
407,4825,26920.0,30024.0
408,3596,26919.0,30018.0
409,7816,26929.0,30021.0
410,6307,26927.0,30019.0
411,6030,26924.0,30022.0
412,7126,26924.0,30018.0
413,2281,26922.0,30021.0
414,2562,26926.0,30022.0
415,3664,26926.0,30024.0
416,2494,26923.0,30031.0
417,6107,26921.0,30026.0
418,5324,26924.0,30023.0
419,7502,26932.0,30023.0
420,3088,26924.0,30030.0
421,2958,26926.0,30033.0
422,3708,26925.0,30030.0
423,5706,26930.0,30030.0
424,4477,26919.0,30036.0
425,3888,26927.0,30033.0
426,6636,26926.0,30033.0
427,2662,26927.0,30033.0
428,4903,26927.0,30036.0
429,3276,26928.0,30036.0
430,4738,26924.0,30038.0
431,3722,26929.0,30036.0
432,1116,26928.0,30037.0
433,1841,26923.0,30041.0
434,835,26924.0,30040.0
435,-1098,26932.0,30041.0
436,-1651,26928.0,30047.0
437,20,26928.0,30049.0
438,11997,26928.0,30048.0
439,10655,26930.0,30044.0
440,10532,26930.0,30044.0
441,7365,26932.0,30046.0
442,8146,26932.0,30053.0
443,8055,26926.0,30056.0
444,4560,26933.0,30041.0
445,9522,26931.0,30059.0
446,5074,26929.0,30060.0
447,5482,26932.0,30060.0
448,6883,26938.0,30060.0
449,4017,26936.0,30064.0
450,6567,26938.0,30068.0
451,3425,26932.0,30070.0
452,4796,26932.0,30066.0
453,3900,26938.0,30069.0
454,5413,26934.0,30073.0
455,8314,26935.0,30076.0
456,10477,26939.0,30071.0
457,8958,26939.0,30079.0
458,8772,26939.0,30081.0
459,4535,26944.0,30083.0
460,5223,26941.0,30090.0
461,5720,26938.0,30092.0
462,3324,26942.0,30089.0
463,4634,26946.0,30094.0
464,3968,26945.0,30096.0
465,8512,26941.0,30101.0
466,9431,26947.0,30098.0
467,8243,26950.0,30101.0
468,10113,26946.0,30108.0
469,11688,26944.0,30106.0
470,14421,26947.0,30107.0
471,14040,26945.0,30112.0
472,15583,26955.0,30113.0
473,16276,26950.0,30119.0
474,16372,26950.0,30125.0
475,11891,26954.0,30117.0
476,16929,26954.0,30123.0
477,14147,26953.0,30127.0
478,14581,26947.0,30126.0
479,13430,26949.0,30120.0
480,10110,26949.0,30109.0
481,11611,26945.0,30098.0
482,12644,26942.0,30093.0
483,12677,26934.0,30078.0
484,15673,26933.0,30068.0
485,16760,26932.0,30054.0
486,-29342,26925.0,30052.0
487,-30511,26921.0,30048.0
488,-29886,26920.0,30039.0
489,-27324,26921.0,30034.0
490,-29846,26919.0,30038.0
491,-32155,26918.0,30042.0
492,-31406,26910.0,30041.0
493,31958,26919.0,30038.0
494,31913,26921.0,30036.0
495,-32448,26916.0,30040.0
496,-31053,26913.0,30037.0
497,-31428,26911.0,30027.0
498,-31759,26912.0,30023.0
499,-30645,26913.0,30027.0
500,-31852,26908.0,30024.0
501,-29944,26907.0,30018.0
502,29091,26904.0,30010.0
503,30231,26906.0,30006.0
504,29467,26904.0,30014.0
505,29303,26902.0,30012.0
506,26621,26907.0,30009.0
507,23872,26910.0,30011.0
508,24927,26906.0,30020.0
509,22586,26898.0,30015.0
510,21951,26903.0,30010.0
511,23909,26907.0,30006.0
512,22774,26905.0,30005.0
513,27695,26898.0,30009.0
514,22764,26900.0,29999.0
515,24497,26896.0,29999.0
516,28279,26899.0,30000.0
517,25661,26897.0,29997.0
518,25357,26895.0,29997.0
519,26198,26892.0,29989.0
520,25750,26896.0,29994.0
521,24367,26893.0,29994.0
522,23888,26887.0,29996.0
523,21472,26891.0,29989.0
524,21036,26894.0,29992.0
525,21656,26900.0,29998.0
526,20668,26892.0,30002.0
527,20720,26892.0,29992.0
528,20653,26895.0,29997.0
529,19558,26894.0,29993.0
530,21128,26890.0,30000.0
531,20115,26890.0,29998.0
532,18136,26895.0,30000.0
533,21200,26896.0,29999.0
534,-30111,26893.0,30001.0
535,-28268,26889.0,30002.0
536,-30408,26894.0,30000.0
537,-30881,26897.0,30003.0
538,-27853,26895.0,30009.0
539,-28037,26895.0,30010.0
540,-26434,26892.0,30010.0
541,-26993,26897.0,30006.0
542,-26734,26896.0,30011.0
543,-27080,26892.0,30007.0
544,-25235,26891.0,30012.0
545,-22073,26895.0,30010.0
546,-22207,26896.0,30009.0
547,-24094,26897.0,30013.0
548,-23775,26898.0,30013.0
549,-22166,26897.0,30010.0
550,-23169,26900.0,30014.0
551,-21679,26902.0,30016.0
552,-22832,26895.0,30019.0
553,-22179,26898.0,30018.0
554,-20243,26895.0,30019.0
555,-20820,26905.0,30020.0
556,-22549,26899.0,30026.0
557,-20642,26895.0,30024.0
558,-21014,26901.0,30024.0
559,-19834,26903.0,30031.0
560,-19643,26904.0,30036.0
561,-20651,26898.0,30035.0
562,-20272,26902.0,30033.0
563,-20980,26900.0,30033.0
564,-25154,26903.0,30037.0
565,-24076,26902.0,30036.0
566,-24457,26900.0,30037.0
567,-25881,26901.0,30033.0
568,-23763,26904.0,30047.0
569,-25667,26903.0,30041.0
570,-23681,26904.0,30043.0
571,-24469,26904.0,30042.0
572,-28364,26906.0,30048.0
573,-28506,26907.0,30050.0
574,-31755,26905.0,30053.0
575,-31744,26905.0,30050.0
576,-30190,26908.0,30059.0
577,-31929,26913.0,30056.0
578,-27025,26909.0,30063.0
579,-25261,26910.0,30062.0
580,-26059,26910.0,30064.0
581,-28147,26910.0,30064.0
582,-17750,26919.0,30069.0
583,-12598,26913.0,30071.0
584,-15029,26911.0,30069.0
585,-13837,26911.0,30061.0
586,-14716,26906.0,30056.0
587,-12204,26903.0,30048.0
588,-13726,26900.0,30035.0
589,-11986,26899.0,30022.0
590,-12806,26897.0,30013.0
591,-10946,26892.0,30004.0
592,-11371,26890.0,30007.0
593,-13194,26890.0,29998.0
594,-11752,26879.0,29997.0
595,-13958,26885.0,29991.0
596,-12168,26884.0,29992.0
597,-10245,26885.0,29991.0
598,-22923,26884.0,29995.0
599,-25821,26882.0,29999.0
600,-26735,26888.0,29993.0
601,-26649,26884.0,29995.0
602,-24518,26889.0,29996.0
603,-23340,26883.0,29995.0
604,-26622,26882.0,29997.0
605,-25608,26880.0,29998.0
606,-30175,26882.0,29991.0
607,-30239,26887.0,29995.0
608,-30056,26884.0,30001.0
609,-30712,26881.0,29998.0
610,-27934,26884.0,29994.0
611,-27449,26884.0,29999.0
612,-27136,26885.0,29995.0
613,-26036,26887.0,29998.0
614,-26808,26881.0,29999.0
615,-22764,26877.0,29994.0
616,-23269,26882.0,29988.0
617,-22648,26880.0,29991.0
618,-16476,26879.0,29985.0
619,-18719,26872.0,29977.0
620,-16192,26873.0,29977.0
621,-18992,26876.0,29974.0
622,-17446,26874.0,29980.0
623,-19966,26872.0,29981.0
624,-23481,26874.0,29979.0
625,-20684,26871.0,29974.0
626,-23204,26879.0,29977.0
627,-26595,26875.0,29984.0
628,-27862,26867.0,29986.0
629,-29907,26875.0,29980.0
630,-5599,26878.0,29985.0
631,-5858,26877.0,29993.0
632,-4923,26879.0,29995.0
633,-5424,26879.0,29997.0
634,-5727,26883.0,29994.0
635,-9841,26889.0,29992.0
636,-7053,26884.0,30002.0
637,-7183,26884.0,30006.0
638,-8219,26885.0,30001.0
639,-9438,26888.0,29996.0
640,-8495,26885.0,30010.0
641,-7366,26886.0,30011.0
642,-7608,26886.0,30004.0
643,-11924,26888.0,30009.0
644,-11577,26892.0,30014.0
645,-16502,26887.0,30019.0
646,-17750,26885.0,30020.0
647,-12598,26888.0,30017.0
648,-15029,26895.0,30017.0
649,-13837,26888.0,30020.0
650,-14716,26882.0,30027.0
651,-12204,26887.0,30014.0
652,-13726,26895.0,30019.0
653,-11986,26893.0,30026.0
654,-12806,26886.0,30029.0
655,-10946,26891.0,30027.0
656,-11371,26898.0,30028.0
657,-13194,26900.0,30031.0
658,-11752,26899.0,30035.0
659,-13958,26892.0,30039.0
660,-12168,26895.0,30032.0
661,-10245,26900.0,30033.0
662,-10582,26902.0,30040.0
663,-8208,26899.0,30046.0
664,-682,26897.0,30041.0
665,-1010,26905.0,30043.0
666,-3798,26905.0,30046.0
667,-1416,26903.0,30054.0
668,-1715,26904.0,30054.0
669,-2225,26902.0,30056.0
670,-4490,26907.0,30052.0
671,-5130,26913.0,30058.0
672,-3522,26906.0,30066.0
673,-6332,26904.0,30064.0
674,-6377,26913.0,30066.0
675,-6379,26917.0,30068.0
676,-10320,26908.0,30072.0
677,-9100,26908.0,30075.0
678,15281,26908.0,30074.0
679,13297,26915.0,30076.0
680,12563,26917.0,30084.0
681,14611,26918.0,30078.0
682,19541,26916.0,30089.0
683,16872,26913.0,30083.0
684,16211,26919.0,30083.0
685,18950,26909.0,30073.0
686,16941,26906.0,30061.0
687,19140,26907.0,30048.0
688,21848,26911.0,30030.0
689,21647,26896.0,30024.0
690,26286,26890.0,30017.0
691,27546,26887.0,30003.0
692,25938,26889.0,29998.0
693,27970,26883.0,29993.0
694,16350,26886.0,29990.0
695,16454,26882.0,29981.0
696,14771,26878.0,29986.0
697,18327,26884.0,29987.0
698,12128,26876.0,29990.0
699,13732,26878.0,29981.0
700,9653,26870.0,29975.0
701,9604,26876.0,29978.0
702,9281,26877.0,29980.0
703,9058,26867.0,29980.0
704,12122,26873.0,29971.0
705,10293,26874.0,29969.0
706,15777,26873.0,29966.0
707,14897,26867.0,29961.0
708,16663,26865.0,29961.0
709,16477,26870.0,29957.0
710,14440,26864.0,29964.0
711,15066,26867.0,29960.0
712,14482,26869.0,29957.0
713,12454,26867.0,29962.0
714,11587,26864.0,29961.0
715,9461,26864.0,29956.0
716,11214,26866.0,29957.0
717,9164,26868.0,29952.0
718,7775,26861.0,29949.0
719,8114,26862.0,29942.0
720,9362,26857.0,29943.0
721,7492,26862.0,29942.0
722,7203,26860.0,29939.0
723,7661,26860.0,29940.0
724,8644,26853.0,29941.0
725,8858,26856.0,29935.0
726,31019,26857.0,29940.0
727,31061,26856.0,29945.0
728,28566,26855.0,29944.0
729,30640,26855.0,29939.0
730,-31705,26863.0,29938.0
731,-30180,26858.0,29943.0
732,-31988,26854.0,29940.0
733,27232,26858.0,29939.0
734,28964,26859.0,29943.0
735,31116,26857.0,29945.0
736,30370,26864.0,29947.0
737,24660,26860.0,29946.0
738,27175,26856.0,29941.0
739,30795,26864.0,29948.0
740,26601,26863.0,29954.0
741,24716,26854.0,29954.0
742,28010,26861.0,29947.0
743,28716,26862.0,29948.0
744,24393,26865.0,29954.0
745,28209,26861.0,29956.0
746,30297,26864.0,29951.0
747,25272,26866.0,29957.0
748,27488,26865.0,29957.0
749,27502,26862.0,29963.0
750,27023,26868.0,29962.0
751,25320,26864.0,29960.0
752,27320,26865.0,29962.0
753,28338,26870.0,29965.0
754,28898,26866.0,29968.0
755,25482,26864.0,29968.0
756,26457,26865.0,29965.0
757,25475,26869.0,29967.0
758,25828,26870.0,29969.0
759,26439,26870.0,29981.0
760,26579,26869.0,29977.0
761,25809,26875.0,29976.0
762,26380,26877.0,29975.0
763,26501,26875.0,29983.0
764,26451,26871.0,29982.0
765,27587,26873.0,29980.0
766,26842,26883.0,29983.0
767,27121,26878.0,29984.0
768,28163,26881.0,29991.0
769,26908,26877.0,29996.0
770,26160,26877.0,29993.0
771,27883,26887.0,29996.0
772,22213,26884.0,29997.0
773,22899,26883.0,30002.0
774,-17439,26886.0,30003.0
775,-18605,26886.0,30000.0
776,-23343,26886.0,30002.0
777,-21610,26889.0,30007.0
778,-21123,26886.0,30016.0
779,-18451,26883.0,30015.0
780,-18744,26883.0,30013.0
781,-19145,26893.0,30016.0
782,-19870,26888.0,30021.0
783,-20713,26888.0,30022.0
784,-22816,26891.0,30019.0
785,-22264,26896.0,30025.0
786,-17688,26895.0,30030.0
787,-16629,26890.0,30034.0
788,-15971,26891.0,30036.0
789,-15940,26892.0,30031.0
790,-29468,26897.0,30041.0
791,-27583,26904.0,30049.0
792,-31256,26895.0,30050.0
793,32067,26898.0,30041.0
794,-32231,26900.0,30039.0
795,-28437,26900.0,30036.0
796,31725,26888.0,30027.0
797,-31921,26883.0,30010.0
798,-30027,26880.0,29993.0
799,-31125,26875.0,29980.0
800,32733,26873.0,29967.0
801,-28848,26875.0,29957.0
802,-27969,26866.0,29951.0
803,-30458,26858.0,29939.0
804,31543,26855.0,29935.0
805,-32257,26860.0,29927.0
806,-31267,26860.0,29925.0
807,-31559,26856.0,29928.0
808,-25800,26854.0,29925.0
809,-28196,26852.0,29926.0
810,-23654,26856.0,29913.0
811,-25986,26855.0,29917.0
812,-30044,26848.0,29917.0
813,-27645,26844.0,29914.0
814,-31518,26843.0,29905.0
815,-28739,26847.0,29900.0
816,-31541,26845.0,29898.0
817,28462,26839.0,29897.0
818,27129,26842.0,29890.0
819,30994,26845.0,29885.0
820,31923,26841.0,29885.0
821,31152,26835.0,29889.0
822,-6007,26838.0,29884.0
823,-5961,26839.0,29882.0
824,-4695,26843.0,29882.0
825,-8147,26841.0,29886.0
826,-5331,26837.0,29883.0
827,-6327,26839.0,29874.0
828,-7874,26840.0,29876.0
829,-7481,26832.0,29875.0
830,-8296,26826.0,29873.0
831,-10684,26830.0,29867.0
832,-13023,26838.0,29863.0
833,-14043,26832.0,29866.0
834,-11723,26827.0,29867.0
835,-13769,26829.0,29862.0
836,-15128,26831.0,29857.0
837,-11638,26831.0,29864.0
838,-17439,26824.0,29863.0
839,-18605,26827.0,29864.0
840,-23343,26834.0,29858.0
841,-21610,26831.0,29866.0
842,-21123,26828.0,29865.0
843,-18451,26832.0,29862.0
844,-18744,26834.0,29860.0
845,-19145,26835.0,29863.0
846,-19870,26835.0,29869.0
847,-20713,26829.0,29869.0
848,-22816,26835.0,29868.0
849,-22264,26840.0,29871.0
850,-17688,26833.0,29874.0
851,-16629,26833.0,29872.0
852,-15971,26838.0,29872.0
853,-15940,26843.0,29872.0
854,-14003,26839.0,29874.0
855,-15573,26835.0,29879.0
856,-15045,26835.0,29880.0
857,-13872,26836.0,29878.0
858,-11290,26842.0,29878.0
859,-16045,26837.0,29883.0
860,-16430,26842.0,29880.0
861,-18577,26845.0,29884.0
862,-17750,26845.0,29888.0
863,-13463,26843.0,29884.0
864,-15087,26842.0,29888.0
865,-16715,26840.0,29891.0
866,-16601,26847.0,29889.0
867,-15602,26842.0,29896.0
868,-14757,26841.0,29896.0
869,-18328,26844.0,29895.0
870,-3724,26854.0,29899.0
871,-333,26849.0,29903.0
872,-2555,26849.0,29902.0
873,-1972,26851.0,29904.0
874,-4279,26855.0,29904.0
875,-458,26849.0,29911.0
876,2114,26852.0,29907.0
877,2777,26852.0,29910.0
878,7127,26855.0,29914.0
879,1749,26859.0,29915.0
880,5590,26856.0,29916.0
881,6928,26855.0,29915.0
882,2647,26860.0,29924.0
883,5493,26863.0,29925.0
884,4522,26857.0,29929.0
885,9267,26860.0,29932.0
886,4036,26863.0,29931.0
887,3340,26869.0,29934.0
888,3108,26866.0,29943.0
889,3187,26868.0,29940.0
890,-78,26869.0,29938.0
891,-1170,26873.0,29945.0
892,-3174,26869.0,29952.0
893,-1620,26868.0,29944.0
894,28,26873.0,29947.0
895,3104,26873.0,29952.0
896,1377,26875.0,29957.0
897,-167,26874.0,29955.0
898,1111,26873.0,29961.0
899,1996,26878.0,29965.0
900,2396,26884.0,29974.0
901,1862,26877.0,29968.0
902,2903,26882.0,29970.0
903,6311,26884.0,29976.0
904,6349,26886.0,29980.0
905,5664,26884.0,29988.0
906,5364,26884.0,29986.0
907,1022,26888.0,29979.0
908,956,26890.0,29977.0
909,-710,26882.0,29976.0
910,-2802,26877.0,29960.0
911,-4290,26877.0,29947.0
912,-2725,26871.0,29935.0
913,43,26868.0,29922.0
914,-2953,26859.0,29909.0
915,-2827,26853.0,29897.0
916,-1110,26850.0,29885.0
917,1042,26851.0,29870.0
918,8494,26848.0,29870.0
919,7821,26843.0,29873.0
920,7774,26843.0,29866.0
921,5830,26844.0,29864.0
922,8466,26839.0,29857.0
923,5603,26844.0,29860.0
924,6971,26841.0,29861.0
925,10067,26834.0,29860.0
926,10574,26839.0,29852.0
927,9869,26842.0,29848.0
928,11395,26838.0,29853.0
929,13647,26834.0,29841.0
930,11929,26832.0,29836.0
931,12411,26835.0,29830.0
932,13640,26829.0,29824.0
933,8703,26836.0,29828.0
934,13584,26827.0,29830.0
935,15894,26832.0,29822.0
936,11801,26827.0,29820.0
937,12467,26835.0,29823.0
938,14781,26836.0,29825.0
939,16247,26825.0,29825.0
940,12812,26829.0,29828.0
941,15098,26832.0,29823.0
942,17196,26834.0,29821.0
943,13304,26828.0,29822.0
944,10995,26823.0,29824.0
945,15951,26828.0,29812.0
946,15318,26828.0,29807.0
947,13736,26831.0,29812.0
948,12252,26823.0,29813.0
949,11765,26822.0,29808.0
950,15196,26825.0,29812.0
951,12020,26832.0,29808.0
952,10990,26827.0,29814.0
953,8356,26823.0,29811.0
954,3820,26822.0,29809.0
955,5653,26830.0,29809.0
956,5030,26831.0,29808.0
957,4386,26830.0,29819.0
958,6448,26823.0,29819.0
959,8891,26826.0,29814.0
960,9899,26831.0,29811.0
961,8112,26834.0,29814.0
962,4605,26831.0,29826.0
963,9505,26829.0,29830.0
964,15831,26829.0,29825.0
965,15377,26837.0,29824.0
966,24278,26840.0,29830.0
967,24696,26832.0,29831.0
968,25389,26833.0,29830.0
969,24740,26831.0,29832.0
970,22330,26831.0,29830.0
971,21281,26839.0,29831.0
972,22030,26845.0,29835.0
973,23318,26838.0,29839.0
974,20192,26836.0,29843.0
975,22036,26839.0,29842.0
976,20877,26846.0,29843.0
977,19385,26844.0,29845.0
978,17416,26839.0,29847.0
979,19594,26840.0,29847.0
980,20976,26842.0,29845.0
981,23747,26847.0,29849.0
982,9465,26848.0,29854.0
983,13484,26843.0,29856.0
984,13777,26846.0,29856.0
985,11230,26849.0,29856.0
986,14256,26851.0,29864.0
987,15991,26849.0,29863.0
988,16307,26849.0,29866.0
989,14409,26857.0,29863.0
990,13816,26854.0,29869.0
991,14099,26852.0,29872.0
992,12791,26851.0,29877.0
993,11404,26859.0,29877.0
994,9943,26857.0,29876.0
995,7979,26863.0,29884.0
996,11545,26859.0,29885.0
997,9798,26861.0,29886.0
998,10822,26862.0,29886.0
999,15126,26864.0,29889.0
1000,16845,26871.0,29894.0
1001,17582,26865.0,29901.0
1002,15985,26864.0,29899.0
1003,15828,26863.0,29902.0
1004,17635,26870.0,29901.0
1005,12885,26867.0,29906.0
1006,14261,26870.0,29908.0
1007,19498,26871.0,29911.0
1008,12312,26872.0,29912.0
1009,12199,26877.0,29915.0
1010,13373,26877.0,29921.0
1011,9152,26873.0,29924.0
1012,7231,26874.0,29923.0
1013,12563,26879.0,29930.0
1014,31468,26884.0,29933.0
1015,29699,26881.0,29935.0
1016,31057,26885.0,29939.0
1017,29393,26885.0,29941.0
1018,28376,26890.0,29942.0
1019,23507,26887.0,29944.0
1020,27835,26884.0,29943.0
1021,26274,26881.0,29938.0
1022,27044,26878.0,29933.0
1023,25153,26878.0,29920.0
1024,21559,26877.0,29905.0
1025,24253,26862.0,29893.0
1026,27719,26858.0,29872.0
1027,25772,26854.0,29858.0
1028,17936,26856.0,29847.0
1029,21415,26849.0,29837.0
1030,24278,26846.0,29828.0
1031,24696,26843.0,29827.0
1032,25389,26843.0,29820.0
1033,24740,26839.0,29824.0
1034,22330,26843.0,29818.0
1035,21281,26839.0,29819.0
1036,22030,26842.0,29823.0
1037,23318,26841.0,29821.0
1038,20192,26844.0,29817.0
1039,22036,26838.0,29812.0
1040,20877,26838.0,29809.0
1041,19385,26835.0,29807.0
1042,17416,26841.0,29796.0
1043,19594,26829.0,29797.0
1044,20976,26832.0,29790.0
1045,23747,26831.0,29792.0
1046,24337,26832.0,29794.0
1047,23901,26828.0,29792.0
1048,26360,26833.0,29791.0
1049,30654,26831.0,29789.0
1050,-30541,26835.0,29795.0
1051,-29342,26829.0,29795.0
1052,31239,26826.0,29793.0
1053,-32192,26830.0,29788.0
1054,-32555,26834.0,29787.0
1055,30978,26833.0,29791.0
1056,29345,26828.0,29783.0
1057,32717,26827.0,29782.0
1058,28134,26828.0,29779.0
1059,27280,26831.0,29773.0
1060,27382,26828.0,29778.0
1061,29194,26824.0,29780.0
1062,-25185,26823.0,29776.0
1063,-27733,26826.0,29774.0
1064,-26428,26830.0,29778.0
1065,-24004,26830.0,29783.0
1066,-26619,26823.0,29779.0
1067,-23240,26830.0,29778.0
1068,-22102,26832.0,29779.0
1069,-21218,26832.0,29781.0
1070,-22480,26827.0,29789.0
1071,-21484,26826.0,29784.0
1072,-16694,26834.0,29786.0
1073,-22462,26833.0,29788.0
1074,-25739,26839.0,29793.0
1075,-22981,26836.0,29797.0
1076,-20794,26834.0,29796.0
1077,-22679,26836.0,29791.0
1078,-24068,26839.0,29797.0
1079,-20141,26839.0,29798.0
1080,-26522,26840.0,29806.0
1081,-24062,26837.0,29806.0
1082,-28161,26843.0,29804.0
1083,-28445,26842.0,29802.0
1084,-28150,26844.0,29809.0
1085,-28285,26846.0,29809.0
1086,-28060,26844.0,29815.0
1087,-24330,26840.0,29818.0
1088,-23595,26845.0,29817.0
1089,-26299,26849.0,29814.0
1090,-28643,26851.0,29816.0
1091,-27590,26845.0,29822.0
1092,-26744,26847.0,29825.0
1093,-27998,26849.0,29825.0
1094,-26472,26855.0,29829.0
1095,-27334,26850.0,29831.0
1096,-26107,26850.0,29836.0
1097,-21948,26851.0,29836.0
1098,-26991,26856.0,29840.0
1099,-22235,26855.0,29839.0
1100,-19224,26858.0,29837.0
1101,-22875,26856.0,29849.0
1102,-23711,26859.0,29852.0
1103,-22320,26860.0,29849.0
1104,-19839,26867.0,29854.0
1105,-22321,26866.0,29856.0
1106,-25032,26863.0,29863.0
1107,-21352,26860.0,29864.0
1108,-21913,26864.0,29864.0
1109,-20778,26872.0,29866.0
1110,-22232,26871.0,29873.0
1111,-21958,26868.0,29879.0
1112,-22228,26867.0,29884.0
1113,-22237,26872.0,29882.0
1114,-20731,26874.0,29878.0
1115,-23476,26878.0,29881.0
1116,-23261,26875.0,29887.0
1117,-19336,26869.0,29895.0
1118,-14388,26874.0,29893.0
1119,-14439,26881.0,29893.0
1120,-16995,26888.0,29894.0
1121,-11163,26883.0,29906.0
1122,-12390,26880.0,29913.0
1123,-14778,26885.0,29904.0
1124,-14258,26893.0,29909.0
1125,-15192,26886.0,29915.0
1126,-16261,26887.0,29919.0
1127,-13447,26887.0,29925.0
1128,-13084,26888.0,29924.0
1129,-10725,26897.0,29926.0
1130,-14279,26901.0,29930.0
1131,-11594,26888.0,29931.0
1132,-14704,26891.0,29919.0
1133,-16472,26890.0,29915.0
1134,-15883,26889.0,29898.0
1135,-18764,26880.0,29890.0
1136,-11952,26869.0,29873.0
1137,-13724,26866.0,29856.0
1138,-14276,26863.0,29837.0
1139,-7853,26864.0,29829.0
1140,-15254,26860.0,29821.0
1141,-17324,26855.0,29818.0
1142,-12365,26848.0,29817.0
1143,-16344,26848.0,29809.0
1144,-13866,26854.0,29809.0
1145,-13353,26851.0,29812.0
1146,-18054,26846.0,29815.0
1147,-16905,26851.0,29807.0
1148,-21787,26853.0,29804.0
1149,-17948,26854.0,29805.0
1150,-18565,26850.0,29804.0
1151,-18900,26848.0,29803.0
1152,-17719,26843.0,29799.0
1153,-19919,26841.0,29794.0
1154,-12349,26844.0,29792.0
1155,-15512,26845.0,29792.0
1156,-16783,26841.0,29786.0
1157,-19390,26842.0,29788.0
1158,5240,26837.0,29788.0
1159,2705,26847.0,29786.0
1160,-2003,26844.0,29788.0
1161,-219,26846.0,29784.0
1162,595,26842.0,29789.0
1163,2276,26842.0,29786.0
1164,-310,26848.0,29783.0
1165,-1703,26840.0,29783.0
1166,5821,26840.0,29780.0
1167,3015,26835.0,29785.0
1168,1384,26836.0,29777.0
1169,1841,26836.0,29773.0
1170,-4261,26843.0,29775.0
1171,76,26842.0,29775.0
1172,-1840,26839.0,29775.0
1173,-3734,26835.0,29776.0
1174,-14136,26844.0,29776.0
1175,-14759,26842.0,29780.0
1176,-14793,26841.0,29783.0
1177,-6285,26842.0,29782.0
1178,-9659,26846.0,29785.0
1179,-10494,26847.0,29786.0
1180,-9414,26843.0,29788.0
1181,-13369,26850.0,29783.0
1182,-11851,26848.0,29791.0
1183,-14239,26847.0,29793.0
1184,-18859,26851.0,29801.0
1185,-18153,26847.0,29798.0
1186,-17883,26846.0,29796.0
1187,-18685,26849.0,29795.0
1188,-18723,26854.0,29802.0
1189,-21332,26852.0,29806.0
1190,-16833,26851.0,29808.0
1191,-16436,26856.0,29809.0
1192,-19442,26853.0,29807.0
1193,-15092,26852.0,29809.0
1194,-15687,26859.0,29813.0
1195,-17476,26855.0,29811.0
1196,-14255,26854.0,29818.0
1197,-15389,26857.0,29816.0
1198,-8075,26860.0,29819.0
1199,-9019,26864.0,29824.0
1200,-10153,26862.0,29826.0
1201,-10522,26861.0,29828.0
1202,-14592,26864.0,29825.0
1203,-11249,26864.0,29832.0
1204,-16070,26867.0,29829.0
1205,-12225,26865.0,29838.0
1206,-2279,26867.0,29834.0
1207,-1011,26868.0,29841.0
1208,-1854,26872.0,29849.0
1209,-4403,26870.0,29849.0
1210,-2742,26871.0,29846.0
1211,-2954,26875.0,29850.0
1212,1443,26872.0,29860.0
1213,-2734,26869.0,29862.0
1214,-4314,26874.0,29858.0
1215,3312,26880.0,29865.0
1216,6202,26877.0,29868.0
1217,4302,26879.0,29866.0
1218,2337,26883.0,29874.0
1219,4336,26884.0,29879.0
1220,4280,26882.0,29876.0
1221,1725,26883.0,29877.0
1222,5240,26888.0,29886.0
1223,2705,26888.0,29890.0
1224,-2003,26886.0,29887.0
1225,-219,26892.0,29896.0
1226,595,26891.0,29893.0
1227,2276,26889.0,29894.0
1228,-310,26894.0,29897.0
1229,-1703,26896.0,29908.0
1230,5821,26894.0,29911.0
1231,3015,26895.0,29911.0
1232,1384,26897.0,29910.0
1233,1841,26906.0,29916.0
1234,-4261,26900.0,29919.0
1235,76,26900.0,29927.0
1236,-1840,26906.0,29927.0
1237,-3734,26909.0,29929.0
1238,-5467,26907.0,29933.0
1239,-6149,26909.0,29937.0
1240,-7980,26911.0,29944.0
1241,-7957,26903.0,29940.0
1242,-7468,26904.0,29938.0
1243,-9936,26908.0,29926.0
1244,-4404,26901.0,29916.0
1245,-3096,26895.0,29906.0
1246,-4573,26890.0,29890.0
1247,-6697,26883.0,29875.0
1248,-4041,26877.0,29852.0
1249,-771,26879.0,29842.0
1250,-1045,26877.0,29835.0
1251,-351,26867.0,29827.0
1252,-1672,26861.0,29822.0
1253,-2392,26863.0,29816.0
1254,1456,26866.0,29812.0
1255,3418,26864.0,29813.0
1256,5068,26866.0,29818.0
1257,2922,26862.0,29817.0
1258,6369,26860.0,29813.0
1259,4768,26863.0,29815.0
1260,5427,26867.0,29814.0
1261,3550,26856.0,29814.0
1262,-1165,26859.0,29807.0
1263,3353,26859.0,29802.0
1264,259,26860.0,29797.0
1265,-767,26861.0,29792.0
1266,-1352,26856.0,29795.0
1267,-1990,26856.0,29791.0
1268,2495,26854.0,29796.0
1269,1189,26855.0,29796.0
1270,-6079,26859.0,29796.0
1271,41,26855.0,29799.0
1272,527,26850.0,29802.0
1273,-2560,26853.0,29800.0
1274,148,26855.0,29791.0
1275,-549,26856.0,29788.0
1276,3159,26854.0,29791.0
1277,3541,26853.0,29791.0
1278,2789,26850.0,29791.0
1279,8733,26851.0,29787.0
1280,8871,26845.0,29786.0
1281,3507,26851.0,29779.0
1282,7767,26850.0,29783.0
1283,2723,26849.0,29780.0
1284,1475,26849.0,29781.0
1285,6548,26848.0,29780.0
1286,5107,26853.0,29781.0
1287,6458,26857.0,29785.0
1288,6443,26854.0,29790.0
1289,7061,26847.0,29794.0
1290,6828,26855.0,29793.0
1291,3007,26862.0,29791.0
1292,6096,26858.0,29789.0
1293,4604,26858.0,29800.0
1294,3807,26857.0,29802.0
1295,6989,26861.0,29805.0
1296,-681,26861.0,29804.0
1297,2549,26865.0,29801.0
1298,3518,26863.0,29810.0
1299,2884,26859.0,29813.0
1300,6124,26857.0,29819.0
1301,4110,26858.0,29822.0
1302,5497,26869.0,29816.0
1303,7705,26869.0,29816.0
1304,10231,26863.0,29823.0
1305,5028,26866.0,29820.0
1306,9132,26864.0,29829.0
1307,9584,26864.0,29830.0
1308,4936,26872.0,29829.0
1309,2627,26873.0,29830.0
1310,2303,26871.0,29828.0
1311,3868,26869.0,29835.0
1312,-2136,26871.0,29831.0
1313,-180,26866.0,29831.0
1314,-1990,26873.0,29841.0
1315,3956,26875.0,29848.0
1316,2364,26875.0,29851.0
1317,4538,26875.0,29851.0
1318,5809,26872.0,29853.0
1319,8963,26880.0,29850.0
1320,7510,26881.0,29858.0
1321,7441,26879.0,29863.0
1322,12735,26882.0,29863.0
1323,9724,26881.0,29869.0
1324,12968,26884.0,29865.0
1325,9786,26890.0,29869.0
1326,4512,26888.0,29874.0
1327,7454,26885.0,29877.0
1328,8374,26887.0,29878.0
1329,7208,26891.0,29884.0
1330,8951,26898.0,29890.0
1331,10190,26893.0,29887.0
1332,9450,26897.0,29891.0
1333,9838,26895.0,29894.0
1334,9661,26897.0,29896.0
1335,7142,26895.0,29901.0
1336,6611,26899.0,29902.0
1337,3723,26899.0,29903.0
1338,3521,26897.0,29909.0
1339,1715,26903.0,29914.0
1340,5459,26907.0,29920.0
1341,5441,26902.0,29917.0
1342,7801,26905.0,29920.0
1343,9230,26910.0,29923.0
1344,6144,26914.0,29929.0
1345,7198,26909.0,29935.0
1346,10416,26915.0,29936.0
1347,11237,26913.0,29935.0
1348,7307,26914.0,29938.0
1349,12100,26916.0,29941.0
1350,13986,26911.0,29937.0
1351,23938,26907.0,29923.0
1352,19341,26902.0,29912.0
1353,20129,26901.0,29899.0
1354,22683,26898.0,29885.0
1355,8422,26889.0,29872.0
1356,9471,26880.0,29857.0
1357,5691,26880.0,29839.0
1358,8373,26874.0,29832.0
1359,8596,26868.0,29823.0
1360,12767,26873.0,29822.0
1361,12750,26872.0,29813.0
1362,13398,26874.0,29818.0
1363,9432,26872.0,29816.0
1364,10590,26870.0,29823.0
1365,9849,26871.0,29817.0
1366,5098,26877.0,29815.0
1367,3174,26871.0,29822.0
1368,2793,26867.0,29817.0
1369,3477,26866.0,29809.0
1370,-809,26870.0,29805.0
1371,3420,26867.0,29805.0
1372,4348,26865.0,29797.0
1373,3240,26865.0,29800.0
1374,3571,26861.0,29795.0
1375,6280,26859.0,29793.0
1376,10643,26859.0,29795.0
1377,11486,26861.0,29798.0
1378,11020,26856.0,29799.0
1379,15747,26860.0,29792.0
1380,13734,26862.0,29792.0
1381,14240,26862.0,29794.0
1382,18478,26861.0,29800.0
1383,16287,26852.0,29794.0
1384,19953,26858.0,29789.0
1385,18403,26857.0,29788.0
1386,18647,26858.0,29783.0
1387,15269,26861.0,29785.0
1388,15196,26860.0,29790.0
1389,17444,26855.0,29788.0
1390,21649,26857.0,29779.0
1391,15855,26863.0,29785.0
1392,18449,26854.0,29789.0
1393,17204,26858.0,29790.0
1394,15854,26855.0,29791.0
1395,16054,26859.0,29790.0
1396,17244,26862.0,29793.0
1397,17157,26860.0,29798.0
1398,11268,26863.0,29802.0
1399,13085,26860.0,29798.0
1400,8545,26859.0,29797.0
1401,7998,26867.0,29800.0
1402,7464,26870.0,29807.0
1403,6932,26862.0,29816.0
1404,8543,26869.0,29810.0
1405,7272,26869.0,29811.0
1406,7541,26870.0,29817.0
1407,7932,26867.0,29819.0
1408,9873,26868.0,29817.0
1409,6820,26869.0,29818.0
1410,10993,26872.0,29818.0
1411,9463,26873.0,29825.0
1412,9274,26871.0,29830.0
1413,11493,26868.0,29831.0
1414,8595,26873.0,29830.0
1415,10022,26876.0,29829.0
1416,12329,26879.0,29836.0
1417,12797,26877.0,29841.0
1418,11656,26875.0,29840.0
1419,13353,26878.0,29837.0
1420,17456,26883.0,29836.0
1421,18538,26887.0,29843.0
1422,17502,26878.0,29849.0
1423,20449,26879.0,29850.0
1424,20639,26883.0,29849.0
1425,17339,26895.0,29854.0
1426,16024,26888.0,29855.0
1427,15929,26887.0,29863.0
1428,18629,26884.0,29862.0
1429,17744,26889.0,29862.0
1430,18686,26895.0,29866.0
1431,16782,26893.0,29872.0
1432,14455,26891.0,29876.0
1433,18618,26894.0,29878.0
1434,19926,26896.0,29876.0
1435,19193,26899.0,29878.0
1436,20541,26900.0,29895.0
1437,23272,26897.0,29892.0
1438,19772,26898.0,29898.0
1439,21072,26904.0,29895.0
1440,22079,26906.0,29903.0
1441,19371,26899.0,29911.0
1442,17648,26903.0,29904.0
1443,16814,26907.0,29909.0
1444,16346,26911.0,29910.0
1445,13409,26909.0,29916.0
1446,27495,26910.0,29921.0
1447,28520,26907.0,29916.0
1448,30801,26911.0,29920.0
1449,30300,26917.0,29918.0
1450,31053,26911.0,29932.0
1451,-32337,26909.0,29935.0
1452,30995,26917.0,29934.0
1453,31047,26925.0,29939.0
1454,-31126,26919.0,29936.0
1455,-27227,26923.0,29947.0
1456,-28528,26921.0,29952.0
1457,-30518,26924.0,29953.0
1458,-32720,26930.0,29956.0
1459,-29147,26929.0,29959.0
1460,-27849,26927.0,29963.0
1461,-30368,26923.0,29960.0
1462,25189,26920.0,29957.0
1463,23426,26919.0,29944.0
1464,18903,26923.0,29933.0
1465,24379,26911.0,29915.0
1466,24649,26900.0,29896.0
1467,24300,26895.0,29880.0
1468,25500,26889.0,29866.0
1469,27179,26892.0,29851.0
1470,24213,26888.0,29841.0
1471,24409,26877.0,29838.0
1472,18473,26881.0,29833.0
1473,17775,26880.0,29833.0
1474,20214,26883.0,29836.0
1475,18495,26879.0,29832.0
1476,21729,26881.0,29831.0
1477,17322,26880.0,29839.0
1478,17647,26886.0,29835.0
1479,15491,26879.0,29836.0
1480,16835,26881.0,29833.0
1481,16013,26878.0,29827.0
1482,20783,26878.0,29821.0
1483,20449,26876.0,29823.0
1484,18747,26877.0,29820.0
1485,18727,26873.0,29817.0
1486,16789,26873.0,29811.0
1487,17065,26874.0,29815.0
1488,10773,26876.0,29815.0
1489,13434,26876.0,29819.0
1490,17597,26878.0,29813.0
1491,13746,26879.0,29817.0
1492,11827,26875.0,29812.0
1493,11726,26873.0,29814.0
1494,26756,26873.0,29814.0
1495,32151,26868.0,29811.0
1496,27340,26871.0,29809.0
1497,26543,26871.0,29804.0
1498,28339,26870.0,29803.0
1499,28563,26873.0,29801.0
1500,29913,26869.0,29805.0
1501,26649,26871.0,29800.0
1502,28684,26865.0,29793.0
1503,28069,26871.0,29802.0
1504,24911,26871.0,29806.0
1505,22404,26869.0,29805.0
1506,23737,26869.0,29808.0
1507,22428,26873.0,29809.0
1508,21479,26877.0,29816.0
1509,26799,26876.0,29814.0
1510,27495,26872.0,29816.0
1511,28520,26876.0,29817.0
1512,30801,26873.0,29819.0
1513,30300,26879.0,29817.0
1514,31053,26876.0,29820.0
1515,-32337,26883.0,29827.0
1516,30995,26876.0,29827.0
1517,31047,26879.0,29825.0
1518,-31126,26879.0,29829.0
1519,-27227,26883.0,29829.0
1520,-28528,26880.0,29836.0
1521,-30518,26881.0,29831.0
1522,-32720,26880.0,29832.0
1523,-29147,26881.0,29841.0
1524,-27849,26884.0,29840.0
1525,-30368,26886.0,29839.0
1526,-27542,26886.0,29840.0
1527,-29125,26888.0,29843.0
1528,-30471,26887.0,29851.0
1529,-26655,26886.0,29852.0
1530,-29891,26886.0,29850.0
1531,-30426,26890.0,29849.0
1532,-28699,26894.0,29854.0
1533,-29379,26897.0,29855.0
1534,-31615,26890.0,29859.0
1535,30644,26894.0,29862.0
1536,-29395,26895.0,29865.0
1537,-28530,26896.0,29869.0
1538,-28761,26893.0,29870.0
1539,-30737,26897.0,29870.0
1540,-30928,26895.0,29869.0
1541,-29320,26900.0,29876.0
1542,30588,26903.0,29886.0
1543,32372,26898.0,29883.0
1544,-30210,26902.0,29883.0
1545,32055,26901.0,29888.0
1546,28867,26902.0,29892.0
1547,-31747,26911.0,29890.0
1548,31892,26907.0,29899.0
1549,-32531,26909.0,29899.0
1550,29455,26905.0,29896.0
1551,31117,26911.0,29906.0
1552,30284,26911.0,29904.0
1553,27779,26920.0,29912.0
1554,29701,26906.0,29918.0
1555,25924,26912.0,29916.0
1556,27323,26915.0,29917.0
1557,25433,26919.0,29916.0
1558,20497,26919.0,29924.0
1559,20940,26920.0,29928.0
1560,20129,26915.0,29931.0
1561,18884,26920.0,29929.0
1562,19995,26922.0,29934.0
1563,26959,26927.0,29941.0
1564,28578,26921.0,29947.0
1565,25720,26919.0,29945.0
1566,26207,26927.0,29949.0
1567,26966,26930.0,29953.0
1568,30141,26926.0,29956.0
1569,28040,26928.0,29959.0
1570,28673,26928.0,29954.0
1571,32531,26927.0,29941.0
1572,-31336,26925.0,29929.0
1573,-32065,26916.0,29918.0
1574,-32059,26909.0,29898.0
1575,-31640,26899.0,29881.0
1576,-29536,26897.0,29859.0
1577,31153,26897.0,29848.0
1578,-31848,26889.0,29846.0
1579,-30543,26879.0,29833.0
1580,-31985,26880.0,29829.0
1581,-30712,26879.0,29819.0
1582,-32525,26885.0,29822.0
1583,-31283,26880.0,29824.0
1584,-29909,26881.0,29826.0
1585,-27974,26876.0,29832.0
1586,-26880,26879.0,29825.0
1587,-31829,26885.0,29829.0
1588,-25938,26881.0,29825.0
1589,-29062,26873.0,29824.0
1590,25598,26875.0,29821.0
1591,28142,26879.0,29811.0
1592,26001,26878.0,29809.0
1593,26059,26875.0,29807.0
1594,26954,26867.0,29810.0
1595,24515,26868.0,29806.0
1596,28094,26875.0,29807.0
1597,28051,26875.0,29806.0
1598,26956,26869.0,29807.0
1599,27267,26871.0,29810.0
1600,28864,26871.0,29809.0
1601,28614,26871.0,29803.0
1602,29145,26874.0,29803.0
1603,25911,26868.0,29803.0
1604,25618,26868.0,29801.0
1605,25636,26865.0,29792.0
1606,27052,26875.0,29794.0
1607,29233,26870.0,29790.0
1608,23440,26870.0,29794.0
1609,27182,26869.0,29786.0
1610,28416,26871.0,29792.0
1611,24434,26875.0,29792.0
1612,26787,26870.0,29795.0
1613,26374,26870.0,29797.0
1614,24965,26868.0,29799.0
1615,26679,26869.0,29803.0
1616,30477,26873.0,29804.0
1617,-32137,26871.0,29801.0
1618,-32167,26873.0,29804.0
1619,-29890,26872.0,29807.0
1620,-30494,26877.0,29811.0
1621,-30500,26876.0,29814.0
1622,-30155,26878.0,29812.0
1623,-31876,26871.0,29818.0
1624,-31904,26876.0,29816.0
1625,-30732,26882.0,29819.0
1626,-29923,26879.0,29827.0
1627,-28607,26886.0,29821.0
1628,-28127,26881.0,29824.0
1629,-28479,26876.0,29822.0
1630,-24071,26887.0,29833.0
1631,-27371,26889.0,29830.0
1632,-27607,26883.0,29837.0
1633,-22832,26886.0,29837.0
1634,-25284,26888.0,29840.0
1635,-24069,26884.0,29842.0
1636,-25491,26889.0,29839.0
1637,-24015,26882.0,29846.0
1638,-22473,26888.0,29848.0
1639,-25294,26893.0,29854.0
1640,-21888,26894.0,29856.0
1641,-20784,26893.0,29853.0
1642,-21892,26897.0,29856.0
1643,-22564,26895.0,29859.0
1644,-23314,26893.0,29859.0
1645,-19676,26900.0,29866.0
1646,-22866,26894.0,29873.0
1647,-19388,26900.0,29874.0
1648,-25507,26900.0,29872.0
1649,-25365,26901.0,29880.0
1650,-22340,26906.0,29880.0
1651,-28661,26905.0,29883.0
1652,-28052,26908.0,29888.0
1653,-26621,26900.0,29887.0
1654,-25464,26910.0,29890.0
1655,-22298,26907.0,29898.0
1656,-25159,26910.0,29895.0
1657,-18630,26911.0,29902.0
1658,-20957,26912.0,29904.0
1659,-19844,26917.0,29906.0
1660,-20734,26919.0,29908.0
1661,-23023,26919.0,29911.0
1662,-26233,26916.0,29916.0
1663,-27052,26913.0,29919.0
1664,-22001,26917.0,29920.0
1665,-28122,26922.0,29922.0
1666,32485,26924.0,29926.0
1667,32555,26920.0,29935.0
1668,-29602,26921.0,29932.0
1669,-29851,26928.0,29940.0
1670,-30962,26927.0,29941.0
1671,-29355,26927.0,29944.0
1672,-25032,26931.0,29948.0
1673,-28301,26934.0,29954.0
1674,-31577,26927.0,29958.0
1675,32699,26935.0,29953.0
1676,32705,26932.0,29952.0
1677,-29585,26931.0,29945.0
1678,-30620,26920.0,29939.0
1679,32434,26917.0,29918.0
1680,29479,26914.0,29902.0
1681,30959,26907.0,29885.0
1682,-32588,26899.0,29867.0
1683,30064,26895.0,29847.0
1684,29506,26894.0,29834.0
1685,30852,26882.0,29826.0
1686,-29911,26880.0,29814.0
1687,-31096,26882.0,29812.0
1688,-24313,26880.0,29807.0
1689,-24718,26883.0,29812.0
1690,-27919,26882.0,29815.0
1691,-24860,26875.0,29820.0
1692,-25177,26879.0,29811.0
1693,-28308,26884.0,29815.0
1694,-29015,26882.0,29813.0
1695,-28705,26878.0,29813.0
1696,-26756,26879.0,29814.0
1697,-32626,26874.0,29808.0
1698,32617,26872.0,29801.0
1699,-27967,26878.0,29797.0
1700,-31578,26875.0,29795.0
1701,-24554,26870.0,29800.0
1702,-22473,26871.0,29799.0
1703,-25294,26872.0,29800.0
1704,-21888,26875.0,29803.0
1705,-20784,26876.0,29807.0
1706,-21892,26870.0,29808.0
1707,-22564,26874.0,29800.0
1708,-23314,26872.0,29795.0
1709,-19676,26875.0,29797.0
1710,-22866,26874.0,29790.0
1711,-19388,26870.0,29796.0
1712,-25507,26868.0,29786.0
1713,-25365,26863.0,29788.0
1714,-22340,26871.0,29781.0
1715,-28661,26870.0,29786.0
1716,-28052,26863.0,29790.0
1717,-26621,26868.0,29786.0
1718,-30201,26867.0,29785.0
1719,-25523,26874.0,29791.0
1720,-28030,26872.0,29792.0
1721,32625,26870.0,29793.0
1722,-24279,26870.0,29797.0
1723,-29032,26874.0,29797.0
1724,-29793,26879.0,29798.0
1725,-31209,26878.0,29808.0
1726,-31022,26874.0,29808.0
1727,-28279,26877.0,29810.0
1728,-27984,26880.0,29811.0
1729,-29827,26878.0,29816.0
1730,-24061,26878.0,29820.0
1731,-23273,26880.0,29820.0
1732,-28652,26883.0,29816.0
1733,-22287,26888.0,29822.0
1734,-25361,26881.0,29826.0
1735,-15204,26885.0,29828.0
1736,-22366,26883.0,29836.0
1737,-28229,26885.0,29835.0
1738,-22756,26889.0,29834.0
1739,-22947,26890.0,29841.0
1740,-19540,26888.0,29846.0
1741,-22365,26890.0,29844.0
1742,-23777,26892.0,29847.0
1743,-11440,26895.0,29849.0
1744,-21212,26893.0,29849.0
1745,-26825,26895.0,29855.0
1746,-21114,26892.0,29851.0
1747,-17367,26899.0,29856.0
1748,-21075,26904.0,29859.0
1749,-24779,26897.0,29864.0
1750,-23792,26896.0,29868.0
1751,-18740,26898.0,29872.0
1752,-25598,26903.0,29873.0
1753,-27352,26909.0,29875.0
1754,-22757,26908.0,29882.0
1755,-17652,26906.0,29888.0
1756,-29339,26907.0,29886.0
1757,-29102,26913.0,29893.0
1758,-21446,26912.0,29891.0
1759,-28748,26916.0,29901.0
1760,-24559,26913.0,29901.0
1761,-27841,26913.0,29910.0
1762,-26956,26918.0,29910.0
1763,-17715,26916.0,29913.0
1764,-24121,26915.0,29923.0
1765,-26614,26920.0,29919.0
1766,-23849,26917.0,29923.0
1767,-24870,26928.0,29928.0
1768,-24324,26926.0,29930.0
1769,-19262,26927.0,29932.0
1770,-26267,26921.0,29933.0
1771,-26554,26929.0,29939.0
1772,-20587,26930.0,29939.0
1773,-23220,26935.0,29945.0
1774,-26524,26928.0,29951.0
1775,-30208,26926.0,29952.0
1776,-18073,26937.0,29958.0
1777,-21204,26930.0,29960.0
1778,-22560,26937.0,29964.0
1779,-24937,26934.0,29965.0
1780,-25860,26936.0,29972.0
1781,-19610,26944.0,29969.0
1782,-18864,26938.0,29965.0
1783,-23558,26935.0,29956.0
1784,-22369,26928.0,29943.0
1785,-24048,26926.0,29933.0
1786,-19542,26919.0,29913.0
1787,-24803,26909.0,29895.0
1788,-22108,26902.0,29884.0
1789,-18047,26900.0,29865.0
1790,-20414,26900.0,29855.0
1791,-19481,26894.0,29850.0
1792,-17053,26898.0,29838.0
1793,-20536,26891.0,29840.0
1794,-22790,26890.0,29839.0
1795,-18668,26891.0,29841.0
1796,-17555,26895.0,29842.0
1797,-13915,26890.0,29845.0
1798,-19272,26890.0,29844.0
1799,-24533,26891.0,29843.0
1800,-22189,26898.0,29848.0
1801,-17474,26893.0,29844.0
1802,-29585,26886.0,29843.0
1803,-25912,26893.0,29838.0
1804,-21659,26891.0,29840.0
1805,-24980,26888.0,29840.0
1806,-20829,26888.0,29835.0
1807,-21241,26891.0,29837.0
1808,-19334,26888.0,29838.0
1809,-23839,26892.0,29841.0
1810,-15351,26893.0,29844.0
1811,-15922,26888.0,29843.0
1812,-24778,26888.0,29837.0
1813,-19122,26888.0,29833.0
1814,-25909,26891.0,29833.0
1815,-14522,26889.0,29834.0
1816,-20877,26884.0,29829.0
1817,-27061,26886.0,29822.0
1818,-15494,26882.0,29819.0
1819,-19355,26886.0,29821.0
1820,-20772,26884.0,29823.0
1821,-25231,26886.0,29823.0
1822,-18615,26878.0,29821.0
1823,-10933,26884.0,29822.0
1824,-20740,26887.0,29820.0
1825,-16338,26889.0,29829.0
1826,-15751,26884.0,29825.0
1827,-14144,26889.0,29825.0
1828,-21767,26888.0,29832.0
1829,-18979,26888.0,29831.0
1830,-19730,26897.0,29837.0
1831,-13203,26891.0,29843.0
1832,-12503,26891.0,29836.0
1833,-15029,26884.0,29848.0
1834,-18296,26893.0,29843.0
1835,-15450,26893.0,29848.0
1836,-8358,26896.0,29851.0
1837,-22213,26893.0,29856.0
1838,-22477,26892.0,29855.0
1839,-6402,26894.0,29857.0
1840,-24962,26899.0,29854.0
1841,-17286,26901.0,29867.0
1842,-11917,26895.0,29867.0
1843,-14421,26899.0,29866.0
1844,-10184,26905.0,29867.0
1845,-18700,26903.0,29880.0
1846,-15696,26903.0,29878.0
1847,-21426,26903.0,29881.0
1848,-23312,26909.0,29880.0
1849,-21065,26907.0,29881.0
1850,-19892,26909.0,29887.0
1851,-12576,26908.0,29890.0
1852,-20203,26907.0,29892.0
1853,-24137,26909.0,29894.0
1854,-15087,26913.0,29896.0
1855,-22801,26919.0,29901.0
1856,-15372,26911.0,29908.0
1857,-18982,26913.0,29907.0
1858,-16325,26918.0,29910.0
1859,-17867,26920.0,29909.0
1860,-13719,26917.0,29913.0
1861,-7797,26919.0,29917.0
1862,-8186,26920.0,29924.0
1863,-21641,26919.0,29925.0
1864,-10875,26921.0,29929.0
1865,-12591,26928.0,29930.0
1866,-21878,26923.0,29939.0
1867,-19576,26925.0,29945.0
1868,-12546,26928.0,29944.0
1869,-20901,26932.0,29949.0
1870,-26577,26935.0,29953.0
1871,-11190,26938.0,29958.0
1872,-22005,26934.0,29964.0
1873,-19794,26931.0,29965.0
1874,-19270,26935.0,29972.0
1875,-20017,26940.0,29967.0
1876,-17707,26949.0,29976.0
1877,-26449,26935.0,29980.0
1878,-1095,26939.0,29974.0
1879,-1388,26937.0,29969.0
1880,9851,26938.0,29956.0
1881,12946,26934.0,29944.0
1882,-20960,26923.0,29929.0
1883,11272,26915.0,29908.0
1884,13490,26915.0,29888.0
1885,-29640,26906.0,29882.0
1886,7895,26902.0,29869.0
1887,-27596,26894.0,29862.0
1888,12233,26894.0,29855.0
1889,19151,26895.0,29851.0
1890,-17516,26899.0,29852.0
1891,-11589,26896.0,29852.0
1892,-3189,26893.0,29858.0
1893,-5311,26895.0,29857.0
1894,23246,26900.0,29855.0
1895,746,26902.0,29857.0
1896,28613,26897.0,29861.0
1897,-9104,26892.0,29867.0
1898,-12305,26897.0,29862.0
1899,-28823,26902.0,29854.0
1900,29783,26901.0,29857.0
1901,-11926,26896.0,29862.0
1902,-11016,26892.0,29863.0
1903,20329,26901.0,29865.0
1904,-25639,26897.0,29864.0
1905,-12515,26901.0,29865.0
1906,-15405,26901.0,29868.0
1907,-31050,26895.0,29864.0
1908,-29129,26894.0,29862.0
1909,-18426,26897.0,29858.0
1910,-22970,26899.0,29858.0
1911,28853,26895.0,29860.0
1912,-17696,26889.0,29853.0
1913,-26695,26889.0,29854.0
1914,-23997,26888.0,29849.0
1915,-13562,26892.0,29852.0
1916,31963,26894.0,29847.0
1917,-35,26890.0,29848.0
1918,-27882,26892.0,29852.0
1919,-27290,26891.0,29853.0
1920,1295,26894.0,29858.0
1921,-28663,26898.0,29867.0
1922,-23393,26895.0,29863.0
1923,-13957,26893.0,29868.0
1924,-10989,26894.0,29868.0
1925,-24114,26902.0,29866.0
1926,32424,26899.0,29869.0
1927,-4609,26899.0,29868.0
1928,-1237,26894.0,29873.0
1929,-19473,26898.0,29879.0
1930,28026,26904.0,29881.0
1931,-7698,26911.0,29881.0
1932,30051,26899.0,29882.0
1933,30757,26910.0,29888.0
1934,17634,26903.0,29889.0
1935,8624,26908.0,29889.0
1936,32405,26907.0,29896.0
1937,27106,26909.0,29891.0
1938,6627,26908.0,29896.0
1939,15121,26906.0,29894.0
1940,-31453,26907.0,29903.0
1941,11871,26915.0,29905.0
1942,16651,26910.0,29905.0
1943,23907,26915.0,29903.0
1944,-18191,26913.0,29909.0
1945,6330,26910.0,29911.0
1946,3293,26912.0,29912.0
1947,-16124,26915.0,29915.0
1948,30601,26916.0,29918.0
1949,12534,26915.0,29915.0
1950,-1029,26921.0,29925.0
1951,-9699,26920.0,29925.0
1952,19531,26919.0,29931.0
1953,-4366,26918.0,29933.0
1954,2362,26918.0,29931.0
1955,-23844,26921.0,29940.0
1956,-32642,26924.0,29941.0
1957,-7935,26924.0,29943.0
1958,10493,26922.0,29938.0
1959,-15374,26921.0,29937.0
1960,-13339,26917.0,29923.0
1961,32607,26918.0,29916.0
1962,9292,26911.0,29900.0
1963,-7645,26903.0,29890.0
1964,24804,26899.0,29876.0
1965,-10499,26899.0,29860.0
1966,-8277,26891.0,29850.0
1967,-5105,26888.0,29846.0
1968,-21897,26889.0,29838.0
1969,-23479,26882.0,29839.0
1970,-19681,26884.0,29841.0
1971,-9058,26884.0,29838.0
1972,-32162,26886.0,29838.0
1973,-28309,26883.0,29843.0
1974,16412,26885.0,29840.0
1975,-13698,26886.0,29842.0
1976,22336,26889.0,29845.0
1977,-5437,26887.0,29843.0
1978,1402,26887.0,29840.0
1979,-20953,26889.0,29846.0
1980,32711,26891.0,29845.0
1981,-12977,26884.0,29849.0
1982,4562,26888.0,29850.0
1983,-14240,26889.0,29851.0
1984,30876,26890.0,29852.0
1985,-15121,26893.0,29852.0
1986,-6537,26895.0,29859.0
1987,-14211,26888.0,29852.0
1988,28880,26881.0,29850.0
1989,-8329,26887.0,29843.0
1990,32424,26888.0,29840.0
1991,-4609,26886.0,29841.0
1992,-1237,26881.0,29838.0
1993,-19473,26881.0,29832.0
1994,28026,26883.0,29831.0
1995,-7698,26883.0,29832.0
1996,30051,26883.0,29836.0
1997,30757,26878.0,29838.0
1998,17634,26880.0,29841.0
1999,8624,26886.0,29840.0
2000,32405,26884.0,29843.0
2001,27106,26888.0,29844.0
2002,6627,26887.0,29850.0
2003,15121,26886.0,29853.0
2004,-31453,26886.0,29858.0
2005,11871,26888.0,29857.0
2006,19549,26888.0,29859.0
2007,-4034,26888.0,29865.0
2008,5349,26887.0,29861.0
2009,8049,26891.0,29863.0
2010,-32259,26892.0,29863.0
2011,-27681,26892.0,29867.0
2012,-28787,26893.0,29873.0
2013,30283,26895.0,29874.0
2014,3492,26889.0,29875.0
2015,-25441,26897.0,29877.0
2016,-14185,26900.0,29882.0
2017,-3925,26902.0,29891.0
2018,21289,26894.0,29888.0
2019,214,26896.0,29893.0
2020,17995,26904.0,29889.0
2021,13680,26900.0,29894.0
2022,5665,26900.0,29900.0
2023,-10143,26903.0,29899.0
2024,2477,26906.0,29901.0
2025,-16277,26904.0,29901.0
2026,3473,26907.0,29908.0
2027,8037,26909.0,29917.0
2028,-23510,26903.0,29915.0
2029,13177,26904.0,29920.0
2030,-803,26908.0,29917.0
2031,-16660,26915.0,29920.0
2032,15688,26911.0,29925.0
2033,-18380,26908.0,29933.0
2034,-19403,26912.0,29929.0
2035,25430,26910.0,29924.0
2036,-12654,26914.0,29920.0
2037,-17011,26904.0,29908.0
2038,-7646,26897.0,29900.0
2039,-14073,26890.0,29878.0
2040,-21863,26886.0,29858.0
2041,-18994,26880.0,29843.0
2042,-3852,26878.0,29826.0
2043,-25670,26870.0,29814.0
2044,-10025,26865.0,29803.0
2045,-23175,26864.0,29794.0
2046,-18102,26867.0,29792.0
2047,-18917,26866.0,29789.0
2048,-21173,26859.0,29789.0
2049,-20856,26857.0,29789.0
2050,-26095,26863.0,29790.0
2051,-9590,26864.0,29787.0
2052,-22831,26862.0,29782.0
2053,-28058,26859.0,29783.0
2054,-12782,26855.0,29783.0
2055,-23295,26857.0,29774.0
2056,-14761,26856.0,29769.0
2057,-10564,26855.0,29765.0
2058,-9410,26850.0,29765.0
2059,-22653,26847.0,29767.0
2060,-17392,26851.0,29768.0
2061,-12356,26850.0,29766.0
2062,-18225,26859.0,29771.0
2063,-21664,26849.0,29773.0
2064,-19749,26850.0,29774.0
2065,-32288,26852.0,29771.0
2066,-16529,26849.0,29767.0
2067,-15001,26852.0,29768.0
2068,-29095,26854.0,29764.0
2069,-17969,26844.0,29764.0
2070,16368,26846.0,29765.0
2071,-30794,26843.0,29766.0
2072,-1841,26848.0,29763.0
2073,15444,26851.0,29761.0
2074,32188,26848.0,29760.0
2075,13063,26849.0,29757.0
2076,-253,26850.0,29760.0
2077,30469,26850.0,29763.0
2078,25670,26850.0,29762.0
2079,-3034,26848.0,29764.0
2080,26326,26845.0,29767.0
2081,22211,26844.0,29771.0
2082,-20530,26850.0,29770.0
2083,28286,26857.0,29773.0
2084,28003,26852.0,29775.0
2085,32088,26851.0,29773.0
2086,-24268,26853.0,29773.0
2087,26878,26858.0,29780.0
2088,23938,26856.0,29780.0
2089,-13643,26859.0,29785.0
2090,18018,26854.0,29791.0
2091,22191,26861.0,29790.0
2092,3403,26865.0,29793.0
2093,198,26859.0,29800.0
2094,11891,26864.0,29796.0
2095,6864,26868.0,29800.0
2096,6889,26865.0,29805.0
2097,21279,26867.0,29807.0
2098,8356,26867.0,29811.0
2099,-4640,26867.0,29811.0
2100,31028,26867.0,29817.0
2101,18670,26868.0,29817.0
2102,-2698,26873.0,29823.0
2103,23905,26872.0,29827.0
2104,15951,26872.0,29826.0
2105,11369,26871.0,29829.0
2106,27259,26877.0,29829.0
2107,5703,26875.0,29832.0
2108,-885,26875.0,29840.0
2109,32735,26878.0,29841.0
2110,-445,26876.0,29843.0
2111,13366,26878.0,29844.0
2112,15208,26881.0,29849.0
2113,6413,26880.0,29855.0
2114,18863,26879.0,29858.0
2115,17437,26882.0,29858.0
2116,-3275,26883.0,29864.0
2117,21745,26887.0,29864.0
2118,-1431,26890.0,29872.0
2119,-4341,26893.0,29880.0
2120,-13257,26889.0,29878.0
2121,16539,26890.0,29878.0
2122,-28368,26890.0,29872.0
2123,2636,26889.0,29872.0
2124,-14972,26888.0,29867.0
2125,-13744,26878.0,29849.0
2126,9600,26875.0,29831.0
2127,29253,26875.0,29820.0
2128,1863,26859.0,29793.0
2129,-25517,26853.0,29779.0
2130,426,26853.0,29765.0
2131,-9374,26844.0,29758.0
2132,-31520,26846.0,29752.0
2133,7754,26839.0,29742.0
2134,11822,26837.0,29738.0
2135,-9436,26839.0,29735.0
2136,-14560,26836.0,29736.0
2137,-719,26836.0,29737.0
2138,10332,26833.0,29728.0
2139,-29798,26836.0,29729.0
2140,1344,26840.0,29723.0
2141,5758,26829.0,29724.0
2142,-5624,26826.0,29717.0
2143,1266,26824.0,29714.0
2144,765,26825.0,29706.0
2145,-17438,26822.0,29698.0
2146,23836,26823.0,29702.0
2147,-9330,26819.0,29697.0
2148,-14529,26820.0,29701.0
2149,13473,26823.0,29697.0
2150,-5441,26825.0,29700.0
2151,781,26826.0,29707.0
2152,-6586,26820.0,29709.0
2153,1349,26821.0,29706.0
2154,-11400,26828.0,29705.0
2155,1248,26831.0,29704.0
2156,16060,26828.0,29706.0
2157,21908,26822.0,29704.0
2158,8687,26825.0,29703.0
2159,-3783,26821.0,29701.0
2160,-27234,26825.0,29695.0
2161,8019,26825.0,29696.0
2162,-24584,26823.0,29701.0
2163,-17375,26820.0,29705.0
2164,352,26823.0,29699.0
2165,-5180,26826.0,29702.0
2166,10511,26824.0,29708.0
2167,-17519,26824.0,29710.0
2168,-3569,26826.0,29707.0
2169,-7049,26820.0,29712.0
2170,2488,26825.0,29711.0
2171,-16284,26829.0,29711.0
2172,-13175,26838.0,29717.0
2173,-3792,26824.0,29723.0
2174,-20752,26828.0,29721.0
2175,5468,26833.0,29721.0
2176,-15197,26835.0,29724.0
2177,-15600,26835.0,29731.0
2178,13531,26839.0,29732.0
2179,-16903,26831.0,29735.0
2180,9483,26839.0,29738.0
2181,-13637,26844.0,29739.0
2182,-1431,26841.0,29746.0
2183,-4341,26838.0,29748.0
2184,-13257,26839.0,29751.0
2185,16539,26841.0,29753.0
2186,-28368,26844.0,29751.0
2187,2636,26848.0,29756.0
2188,-14972,26844.0,29756.0
2189,-13744,26846.0,29766.0
2190,9600,26845.0,29757.0
2191,29253,26850.0,29764.0
2192,1863,26855.0,29769.0
2193,-25517,26848.0,29770.0
2194,426,26849.0,29777.0
2195,-9374,26855.0,29775.0
2196,-31520,26862.0,29776.0
2197,7754,26855.0,29777.0
2198,-30339,26858.0,29786.0
2199,-2960,26857.0,29792.0
2200,-2974,26853.0,29791.0
2201,31485,26862.0,29795.0
2202,4770,26868.0,29797.0
2203,-17372,26863.0,29806.0
2204,-11679,26862.0,29807.0
2205,8487,26862.0,29807.0
2206,31939,26870.0,29814.0
2207,10481,26874.0,29824.0
2208,-16409,26868.0,29825.0
2209,-24451,26870.0,29823.0
2210,11950,26870.0,29817.0
2211,31895,26873.0,29816.0
2212,-13609,26867.0,29806.0
2213,2809,26863.0,29796.0
2214,-1383,26853.0,29782.0
2215,246,26845.0,29773.0
2216,5749,26844.0,29749.0
2217,3823,26841.0,29730.0
2218,-2472,26831.0,29725.0
2219,1380,26831.0,29714.0
2220,5288,26823.0,29710.0
2221,219,26832.0,29697.0
2222,-1787,26827.0,29701.0
2223,-6431,26824.0,29699.0
2224,1712,26820.0,29699.0
2225,-2039,26821.0,29702.0
2226,-4580,26824.0,29700.0
2227,-1281,26829.0,29695.0
2228,-4780,26821.0,29694.0
2229,-4173,26817.0,29692.0
2230,-5030,26819.0,29685.0
2231,1942,26821.0,29682.0
2232,-7260,26818.0,29682.0
2233,-7563,26819.0,29678.0
2234,-8322,26814.0,29678.0
2235,-6378,26818.0,29681.0
2236,-6113,26821.0,29681.0
2237,-4501,26821.0,29686.0
2238,-16744,26819.0,29686.0
2239,-1626,26814.0,29691.0
2240,-6139,26817.0,29689.0
2241,-19662,26818.0,29690.0
2242,-2373,26820.0,29690.0
2243,-5564,26822.0,29680.0
2244,-11804,26821.0,29683.0
2245,-4298,26814.0,29678.0
2246,-16517,26820.0,29679.0
2247,-13866,26816.0,29680.0
2248,-3549,26814.0,29673.0
2249,-18127,26815.0,29676.0
2250,-10976,26820.0,29681.0
2251,-914,26821.0,29684.0
2252,-16588,26818.0,29682.0
2253,-5327,26821.0,29685.0
2254,-1298,26825.0,29689.0
2255,-20067,26818.0,29689.0
2256,-8154,26827.0,29693.0
2257,-3295,26821.0,29696.0
2258,-18175,26825.0,29698.0
2259,-2833,26827.0,29700.0
2260,-8654,26831.0,29703.0
2261,-9312,26829.0,29711.0
2262,-7486,26826.0,29712.0
2263,-3262,26828.0,29714.0
2264,-8454,26833.0,29716.0
2265,-2754,26835.0,29721.0
2266,-3619,26829.0,29727.0
2267,-14196,26831.0,29724.0
2268,-11394,26836.0,29728.0
2269,-7034,26838.0,29730.0
2270,-8228,26841.0,29735.0
2271,-4567,26835.0,29739.0
2272,-14038,26838.0,29739.0
2273,-14744,26844.0,29738.0
2274,-5879,26847.0,29745.0
2275,-15213,26845.0,29752.0
2276,-9058,26841.0,29753.0
2277,-9523,26843.0,29758.0
2278,-7397,26851.0,29753.0
2279,-3565,26849.0,29759.0
2280,-3914,26852.0,29761.0
2281,-5277,26852.0,29770.0
2282,-3875,26849.0,29771.0
2283,377,26856.0,29774.0
2284,-2256,26858.0,29779.0
2285,-3211,26856.0,29784.0
2286,-3713,26856.0,29784.0
2287,-11084,26858.0,29785.0
2288,-5859,26860.0,29788.0
2289,-1123,26864.0,29793.0
2290,-7328,26860.0,29798.0
2291,2634,26864.0,29803.0
2292,-4405,26864.0,29801.0
2293,-5549,26866.0,29807.0
2294,-1633,26866.0,29812.0
2295,-5872,26871.0,29814.0
2296,-5943,26874.0,29822.0
2297,-3477,26872.0,29826.0
2298,1419,26877.0,29829.0
2299,-4702,26876.0,29831.0
2300,-3232,26882.0,29834.0
2301,-2817,26879.0,29841.0
2302,-8272,26882.0,29846.0
2303,-6024,26880.0,29849.0
2304,-10922,26886.0,29852.0
2305,-12361,26889.0,29852.0
2306,-5128,26888.0,29849.0
2307,-8648,26882.0,29844.0
2308,-10443,26873.0,29834.0
2309,-4877,26871.0,29814.0
2310,-4729,26866.0,29794.0
2311,-8071,26860.0,29781.0
2312,-7544,26849.0,29763.0
2313,-3655,26843.0,29749.0
2314,-1381,26840.0,29740.0
2315,-946,26841.0,29734.0
2316,-543,26841.0,29733.0
2317,163,26834.0,29732.0
2318,5566,26832.0,29730.0
2319,740,26836.0,29727.0
2320,-3227,26836.0,29724.0
2321,867,26836.0,29721.0
2322,1274,26832.0,29716.0
2323,-9979,26831.0,29717.0
2324,-13952,26828.0,29707.0
2325,-16070,26829.0,29700.0
2326,-12739,26829.0,29704.0
2327,-16453,26821.0,29692.0
2328,-18922,26818.0,29691.0
2329,-15884,26822.0,29684.0
2330,-14107,26827.0,29686.0
2331,-10311,26816.0,29682.0
2332,-6181,26818.0,29684.0
2333,-8471,26818.0,29686.0
2334,-6258,26814.0,29685.0
2335,-5335,26826.0,29687.0
2336,-2904,26823.0,29695.0
2337,-1230,26822.0,29694.0
2338,-2486,26819.0,29694.0
2339,323,26818.0,29689.0
2340,1567,26818.0,29688.0
2341,-2274,26824.0,29691.0
2342,-5758,26818.0,29692.0
2343,-3381,26818.0,29687.0
2344,-5074,26812.0,29686.0
2345,-5848,26820.0,29689.0
2346,-5676,26823.0,29683.0
2347,-5235,26827.0,29690.0
2348,-4293,26817.0,29691.0
2349,-1853,26819.0,29694.0
2350,-2753,26822.0,29697.0
2351,859,26823.0,29696.0
2352,179,26824.0,29704.0
2353,-2013,26824.0,29704.0
2354,-3646,26829.0,29707.0
2355,-4666,26827.0,29703.0
2356,-7966,26828.0,29708.0
2357,-6034,26830.0,29709.0
2358,-3229,26826.0,29715.0
2359,10,26822.0,29724.0
2360,-956,26827.0,29724.0
2361,-3603,26829.0,29721.0
2362,-2782,26834.0,29727.0
2363,-3028,26829.0,29731.0
2364,3516,26836.0,29734.0
2365,-65,26831.0,29736.0
2366,-1420,26839.0,29737.0
2367,-1698,26843.0,29742.0
2368,-2990,26842.0,29739.0
2369,-3576,26838.0,29747.0
2370,-1502,26840.0,29748.0
2371,-63,26848.0,29754.0
2372,634,26845.0,29755.0
2373,6657,26843.0,29760.0
2374,6388,26849.0,29765.0
2375,4917,26846.0,29769.0
2376,8961,26852.0,29768.0
2377,6667,26852.0,29770.0
2378,2756,26856.0,29775.0
2379,5236,26855.0,29775.0
2380,2713,26852.0,29783.0
2381,3448,26863.0,29786.0
2382,2992,26856.0,29788.0
2383,667,26857.0,29795.0
2384,619,26858.0,29798.0
2385,-1484,26868.0,29801.0
2386,-819,26863.0,29808.0
2387,-2192,26869.0,29809.0
2388,-3983,26872.0,29816.0
2389,-4277,26863.0,29818.0
2390,-2183,26872.0,29821.0
2391,-2892,26869.0,29824.0
2392,-1166,26872.0,29832.0
2393,2232,26872.0,29830.0
2394,926,26873.0,29834.0
2395,1563,26879.0,29845.0
2396,2350,26877.0,29847.0
2397,1363,26875.0,29853.0
2398,-2740,26879.0,29852.0
2399,-7412,26885.0,29856.0
2400,-7350,26882.0,29858.0
2401,432,26888.0,29860.0
2402,-7278,26891.0,29868.0
2403,-8793,26889.0,29867.0
2404,-6966,26890.0,29876.0
2405,-7826,26890.0,29882.0
2406,-10729,26895.0,29883.0
2407,-4785,26892.0,29887.0
2408,-7651,26895.0,29890.0
2409,-4172,26899.0,29898.0
2410,-3820,26902.0,29903.0
2411,-3422,26902.0,29906.0
2412,-3660,26904.0,29908.0
2413,-4825,26901.0,29910.0
2414,-637,26907.0,29921.0
2415,2500,26909.0,29917.0
2416,554,26906.0,29920.0
2417,3104,26896.0,29913.0
2418,3896,26899.0,29898.0
2419,1137,26893.0,29888.0
2420,2425,26887.0,29870.0
2421,-207,26878.0,29860.0
2422,-486,26877.0,29841.0
2423,-2241,26874.0,29826.0
2424,-3277,26868.0,29820.0
2425,-6582,26868.0,29814.0
2426,-5345,26862.0,29809.0
2427,-5110,26863.0,29804.0
2428,-6833,26862.0,29808.0
2429,-3767,26859.0,29806.0
2430,-511,26860.0,29805.0
2431,1164,26861.0,29807.0
2432,-437,26858.0,29806.0
2433,-817,26861.0,29803.0
2434,3796,26856.0,29795.0
2435,-1993,26856.0,29796.0
2436,-5611,26851.0,29793.0
2437,-3911,26855.0,29788.0
2438,-5446,26851.0,29786.0
2439,-5783,26846.0,29780.0
2440,-10953,26851.0,29776.0
2441,-11837,26849.0,29782.0
2442,-10720,26850.0,29778.0
2443,-10390,26852.0,29779.0
2444,-9122,26846.0,29781.0
2445,-10193,26848.0,29788.0
2446,-7735,26846.0,29789.0
2447,-8127,26851.0,29782.0
2448,-7015,26854.0,29780.0
2449,-4781,26853.0,29786.0
2450,-7683,26845.0,29785.0
2451,-6425,26849.0,29782.0
2452,-5541,26849.0,29779.0
2453,-7564,26845.0,29777.0
2454,3001,26854.0,29779.0
2455,336,26846.0,29781.0
2456,-2949,26847.0,29783.0
2457,1643,26849.0,29783.0
2458,2782,26852.0,29780.0
2459,1438,26849.0,29784.0
2460,-2324,26851.0,29784.0
2461,-619,26850.0,29792.0
2462,1429,26849.0,29790.0
2463,1827,26850.0,29793.0
2464,1688,26854.0,29796.0
2465,798,26857.0,29799.0
2466,2581,26855.0,29799.0
2467,4133,26855.0,29803.0
2468,1056,26858.0,29803.0
2469,-3205,26859.0,29805.0
2470,-4057,26859.0,29812.0
2471,-5934,26862.0,29819.0
2472,-7183,26860.0,29816.0
2473,-4087,26857.0,29818.0
2474,-4272,26863.0,29820.0
2475,-6168,26864.0,29826.0
2476,-4313,26862.0,29828.0
2477,-2216,26866.0,29828.0
2478,-3845,26866.0,29830.0
2479,-7255,26872.0,29829.0
2480,-4760,26870.0,29840.0
2481,-6261,26868.0,29841.0
2482,-4820,26868.0,29844.0
2483,-5076,26874.0,29845.0
2484,-6376,26872.0,29847.0
2485,-7666,26872.0,29851.0
2486,-6572,26876.0,29856.0
2487,-3872,26870.0,29860.0
2488,-6031,26876.0,29860.0
2489,-3116,26882.0,29862.0
2490,-4321,26881.0,29866.0
2491,-2848,26881.0,29870.0
2492,-2207,26882.0,29874.0
2493,-8740,26888.0,29881.0
2494,-9344,26888.0,29878.0
2495,-6210,26885.0,29885.0
2496,-3461,26886.0,29887.0
2497,-3376,26887.0,29892.0
2498,-2752,26894.0,29892.0
2499,559,26892.0,29901.0
2500,-2890,26893.0,29902.0
2501,-5277,26891.0,29911.0
2502,-5770,26897.0,29906.0
2503,-4360,26898.0,29909.0
2504,-4586,26901.0,29913.0
2505,-3745,26902.0,29920.0
2506,-3655,26900.0,29925.0
2507,-1698,26895.0,29929.0
2508,-3877,26902.0,29929.0
2509,-1336,26906.0,29940.0
2510,-2556,26901.0,29939.0
2511,-1288,26904.0,29946.0
2512,66,26911.0,29946.0
2513,-4592,26913.0,29949.0
2514,-1529,26914.0,29953.0
2515,-4264,26916.0,29960.0
2516,-1573,26913.0,29960.0
2517,-2816,26913.0,29965.0
2518,-3855,26922.0,29967.0
2519,-5273,26920.0,29972.0
2520,-8200,26917.0,29974.0
2521,-7324,26914.0,29970.0
2522,-11494,26918.0,29962.0
2523,-8348,26908.0,29958.0
2524,-10324,26904.0,29941.0
2525,-13915,26902.0,29927.0
2526,-14185,26899.0,29914.0
2527,-11648,26896.0,29898.0
2528,-15415,26893.0,29898.0
2529,-15779,26888.0,29894.0
2530,-12467,26880.0,29883.0
2531,-14461,26889.0,29884.0
2532,-12029,26891.0,29883.0
2533,-11255,26884.0,29884.0
2534,-11322,26880.0,29883.0
2535,-13600,26885.0,29884.0
2536,-10856,26886.0,29888.0
2537,-10230,26886.0,29889.0
2538,-12766,26884.0,29882.0
2539,-9641,26882.0,29878.0
2540,-9196,26885.0,29880.0
2541,-5545,26880.0,29872.0
2542,-4721,26880.0,29874.0
2543,-3822,26882.0,29872.0
2544,-6024,26878.0,29871.0
2545,-5455,26879.0,29877.0
2546,-5092,26881.0,29881.0
2547,-2649,26880.0,29881.0
2548,-5390,26881.0,29886.0
2549,-4645,26882.0,29881.0
2550,1562,26881.0,29885.0
2551,2278,26884.0,29887.0
2552,85,26884.0,29880.0
2553,-603,26880.0,29875.0
2554,-140,26883.0,29876.0
2555,1407,26876.0,29872.0
2556,1187,26880.0,29871.0
2557,-767,26877.0,29869.0
2558,2392,26873.0,29869.0
2559,5568,26877.0,29871.0
2560,6149,26878.0,29873.0
2561,1586,26873.0,29873.0
2562,1456,26874.0,29874.0
2563,1139,26878.0,29876.0
2564,1212,26884.0,29880.0
2565,-1206,26882.0,29885.0
2566,-5770,26879.0,29876.0
2567,-4360,26879.0,29884.0
2568,-4586,26885.0,29885.0
2569,-3745,26882.0,29895.0
2570,-3655,26885.0,29891.0
2571,-1698,26887.0,29894.0
2572,-3877,26889.0,29897.0
2573,-1336,26889.0,29905.0
2574,-2556,26887.0,29904.0
2575,-1288,26888.0,29902.0
2576,66,26892.0,29910.0
2577,-4592,26892.0,29915.0
2578,-1529,26892.0,29910.0
2579,-4264,26890.0,29917.0
2580,-1573,26898.0,29921.0
2581,-2816,26892.0,29919.0
2582,-2772,26898.0,29922.0
2583,-4203,26898.0,29924.0
2584,-682,26899.0,29930.0
2585,-1557,26897.0,29928.0
2586,-6201,26897.0,29933.0
2587,-3291,26894.0,29935.0
2588,-4364,26897.0,29939.0
2589,-5394,26896.0,29942.0
2590,-1732,26903.0,29941.0
2591,-2005,26902.0,29945.0
2592,-2027,26909.0,29952.0
2593,-3484,26904.0,29954.0
2594,-6275,26907.0,29955.0
2595,-3576,26907.0,29954.0
2596,-1624,26910.0,29960.0
2597,-2118,26912.0,29962.0
2598,-3786,26910.0,29967.0
2599,-1246,26911.0,29971.0
2600,-5557,26913.0,29971.0
2601,-226,26915.0,29976.0
2602,-867,26918.0,29983.0
2603,617,26913.0,29980.0
2604,826,26916.0,29981.0
2605,106,26917.0,29983.0
2606,2579,26922.0,29991.0
2607,1350,26922.0,29995.0
2608,-489,26922.0,29997.0
2609,1082,26921.0,29998.0
2610,3387,26927.0,30005.0
2611,6538,26929.0,30005.0
2612,6625,26927.0,30014.0
2613,8415,26925.0,30016.0
2614,-6271,26929.0,30022.0
2615,-2182,26933.0,30021.0
2616,-6685,26932.0,30028.0
2617,-5738,26932.0,30033.0
2618,-6626,26931.0,30028.0
2619,-8284,26932.0,30020.0
2620,-7663,26930.0,30014.0
2621,-6526,26926.0,29997.0
2622,-4317,26919.0,29990.0
2623,-948,26909.0,29973.0
2624,680,26906.0,29958.0
2625,795,26903.0,29947.0
2626,2174,26903.0,29929.0
2627,3165,26892.0,29927.0
2628,4940,26891.0,29921.0
2629,4129,26888.0,29914.0
2630,5381,26893.0,29917.0
2631,3710,26890.0,29912.0
2632,2456,26885.0,29910.0
2633,1794,26889.0,29909.0
2634,-787,26887.0,29910.0
2635,-2922,26888.0,29903.0
2636,-3867,26889.0,29903.0
2637,-2279,26883.0,29901.0
2638,2863,26879.0,29897.0
2639,3298,26879.0,29888.0
2640,5439,26883.0,29881.0
2641,4559,26882.0,29886.0
2642,2312,26876.0,29883.0
2643,3267,26874.0,29875.0
2644,-1362,26875.0,29874.0
2645,1737,26879.0,29875.0
2646,-236,26873.0,29878.0
2647,-1849,26872.0,29877.0
2648,-4022,26873.0,29879.0
2649,-1639,26872.0,29882.0
2650,-348,26872.0,29875.0
2651,1063,26874.0,29871.0
2652,-579,26869.0,29873.0
2653,-1486,26869.0,29870.0
2654,-2295,26869.0,29869.0
2655,-872,26872.0,29865.0
2656,-1977,26875.0,29863.0
2657,-2247,26866.0,29866.0
2658,-1127,26867.0,29870.0
2659,-3810,26873.0,29869.0
2660,-3973,26872.0,29867.0
2661,-6665,26872.0,29869.0
2662,-10667,26874.0,29870.0
2663,-10081,26872.0,29874.0
2664,-11946,26874.0,29870.0
2665,-11851,26877.0,29874.0
2666,-14715,26876.0,29876.0
2667,-15091,26875.0,29879.0
2668,-17548,26871.0,29879.0
2669,-16633,26873.0,29881.0
2670,-17001,26878.0,29886.0
2671,-14598,26882.0,29891.0
2672,-11721,26876.0,29895.0
2673,-12441,26880.0,29896.0
2674,-10987,26880.0,29898.0
2675,-9175,26882.0,29898.0
2676,-12185,26884.0,29899.0
2677,-14201,26887.0,29904.0
2678,-14766,26882.0,29903.0
2679,-17781,26881.0,29911.0
2680,-13942,26885.0,29911.0
2681,-19446,26887.0,29910.0
2682,-16313,26889.0,29915.0
2683,-15353,26887.0,29915.0
2684,-16583,26885.0,29921.0
2685,-16438,26893.0,29924.0
2686,-13904,26895.0,29924.0
2687,-11777,26895.0,29927.0
2688,-6818,26891.0,29927.0
2689,-7243,26891.0,29935.0
2690,-8850,26895.0,29941.0
2691,-4787,26899.0,29942.0
2692,-6187,26902.0,29941.0
2693,-6429,26902.0,29942.0
2694,1512,26901.0,29942.0
2695,6777,26897.0,29949.0
2696,3448,26905.0,29951.0
2697,5320,26903.0,29956.0
2698,1401,26900.0,29958.0
2699,6821,26903.0,29962.0
2700,8111,26905.0,29961.0
2701,3431,26908.0,29966.0
2702,5253,26905.0,29971.0
2703,6249,26912.0,29971.0
2704,9901,26914.0,29974.0
2705,6848,26913.0,29980.0
2706,5705,26917.0,29984.0
2707,751,26916.0,29987.0
2708,7838,26914.0,29989.0
2709,9241,26913.0,29990.0
2710,-640,26916.0,29996.0
2711,-1900,26924.0,30003.0
2712,-1730,26920.0,30003.0
2713,3745,26919.0,30009.0
2714,-1110,26925.0,30007.0
2715,1546,26923.0,30012.0
2716,-2161,26927.0,30017.0
2717,3732,26929.0,30018.0
2718,6394,26926.0,30027.0
2719,4482,26929.0,30024.0
2720,4494,26928.0,30029.0
2721,5692,26935.0,30033.0
2722,4753,26933.0,30038.0
2723,3369,26934.0,30048.0
2724,1364,26941.0,30046.0
2725,-1683,26940.0,30051.0
2726,-227,26941.0,30049.0
2727,-7553,26940.0,30048.0
2728,-7115,26935.0,30044.0
2729,-5810,26936.0,30027.0
2730,-4627,26932.0,30019.0
2731,-5034,26921.0,30005.0
2732,-2858,26914.0,29982.0
2733,-4535,26910.0,29965.0
2734,-6182,26905.0,29951.0
2735,-9770,26898.0,29940.0
2736,-12099,26890.0,29922.0
2737,-12714,26893.0,29918.0
2738,-11212,26890.0,29912.0
2739,-14659,26889.0,29918.0
2740,-15004,26891.0,29912.0
2741,-13018,26886.0,29915.0
2742,11038,26892.0,29911.0
2743,10000,26890.0,29907.0
2744,13932,26883.0,29905.0
2745,12803,26884.0,29901.0
2746,15732,26883.0,29897.0
2747,9670,26883.0,29895.0
2748,11553,26881.0,29886.0
2749,12182,26875.0,29881.0
2750,7845,26873.0,29878.0
2751,5600,26872.0,29870.0
2752,4640,26876.0,29870.0
2753,5267,26873.0,29873.0
2754,700,26866.0,29870.0
2755,2989,26870.0,29868.0
2756,-243,26870.0,29867.0
2757,2733,26873.0,29867.0
2758,1032,26869.0,29876.0
2759,3335,26867.0,29868.0
2760,3466,26871.0,29872.0
2761,8111,26868.0,29867.0
2762,4144,26864.0,29866.0
2763,5146,26869.0,29861.0
2764,-591,26873.0,29860.0
2765,5417,26865.0,29866.0
2766,1306,26867.0,29861.0
2767,-518,26863.0,29854.0
2768,1548,26868.0,29856.0
2769,5001,26870.0,29853.0
2770,282,26863.0,29858.0
2771,502,26863.0,29857.0
2772,1765,26867.0,29861.0
2773,-970,26868.0,29858.0
2774,5875,26871.0,29864.0
2775,3917,26871.0,29871.0
2776,5849,26867.0,29870.0
2777,3350,26868.0,29872.0
2778,6514,26871.0,29871.0
2779,4177,26876.0,29872.0
2780,6804,26873.0,29882.0
2781,3293,26867.0,29888.0
2782,7594,26871.0,29882.0
2783,7123,26877.0,29884.0
2784,6410,26883.0,29888.0
2785,8051,26873.0,29888.0
2786,6528,26875.0,29892.0
2787,7012,26876.0,29897.0
2788,10570,26873.0,29894.0
2789,3907,26882.0,29896.0
2790,-7557,26888.0,29897.0
2791,-2736,26881.0,29905.0
2792,-4502,26880.0,29910.0
2793,-1982,26883.0,29908.0
2794,-3505,26890.0,29912.0
2795,-6063,26895.0,29911.0
2796,-1742,26885.0,29911.0
2797,-4064,26888.0,29919.0
2798,-1647,26888.0,29921.0
2799,-2214,26893.0,29918.0
2800,1739,26894.0,29924.0
2801,-2223,26893.0,29932.0
2802,-83,26892.0,29933.0
2803,1098,26890.0,29936.0
2804,496,26896.0,29939.0
2805,390,26900.0,29937.0
2806,-3138,26901.0,29941.0
2807,-4277,26898.0,29945.0
2808,-4123,26896.0,29950.0
2809,-3868,26898.0,29952.0
2810,-5706,26904.0,29955.0
2811,-8613,26906.0,29968.0
2812,-3807,26901.0,29967.0
2813,-4100,26903.0,29969.0
2814,165,26905.0,29970.0
2815,-5067,26915.0,29970.0
2816,-851,26910.0,29974.0
2817,-1363,26912.0,29980.0
2818,-3173,26911.0,29981.0
2819,-6871,26909.0,29988.0
2820,-4049,26912.0,29989.0
2821,-9101,26918.0,29993.0
2822,-5200,26920.0,29998.0
2823,-9096,26921.0,30001.0
2824,-9986,26918.0,30008.0
2825,-10957,26924.0,30007.0
2826,-12205,26923.0,30008.0
2827,-12307,26920.0,30015.0
2828,-10978,26926.0,30018.0
2829,-8238,26922.0,30023.0
2830,-11320,26926.0,30023.0
2831,-9309,26932.0,30028.0
2832,-7560,26934.0,30035.0
2833,-4026,26931.0,30036.0
2834,-8465,26927.0,30042.0
2835,-9555,26933.0,30044.0
2836,-11121,26940.0,30046.0
2837,-9725,26939.0,30043.0
2838,3982,26941.0,30041.0
2839,5201,26934.0,30034.0
2840,6907,26931.0,30030.0
2841,6782,26926.0,30013.0
2842,6562,26919.0,29994.0
2843,9975,26910.0,29983.0
2844,5939,26906.0,29963.0
2845,5916,26902.0,29948.0
2846,1967,26901.0,29936.0
2847,6925,26894.0,29929.0
2848,3957,26891.0,29922.0
2849,2545,26891.0,29918.0
2850,3585,26886.0,29913.0
2851,5812,26891.0,29923.0
2852,4126,26890.0,29922.0
2853,7905,26889.0,29917.0
2854,4033,26886.0,29913.0
2855,6246,26882.0,29915.0
2856,4122,26889.0,29914.0
2857,6085,26885.0,29905.0
2858,6682,26885.0,29906.0
2859,6744,26880.0,29903.0
2860,9968,26879.0,29898.0
2861,6764,26878.0,29895.0
2862,10750,26880.0,29896.0
2863,5060,26881.0,29893.0
2864,8980,26876.0,29892.0
2865,3654,26874.0,29889.0
2866,3548,26876.0,29893.0
2867,-2579,26881.0,29892.0
2868,-2031,26875.0,29896.0
2869,-409,26881.0,29894.0
2870,1231,26880.0,29896.0
2871,-3758,26876.0,29896.0
2872,-4560,26876.0,29895.0
2873,-5438,26878.0,29891.0
2874,-6525,26873.0,29892.0
2875,-7111,26872.0,29887.0
2876,-11101,26874.0,29885.0
2877,-5515,26874.0,29888.0
2878,-5640,26869.0,29888.0
2879,-1832,26873.0,29892.0
2880,-6864,26876.0,29888.0
2881,-1761,26873.0,29888.0
2882,-2784,26874.0,29892.0
2883,-767,26877.0,29897.0
2884,-3283,26883.0,29896.0
2885,-2479,26874.0,29901.0
2886,-9306,26878.0,29906.0
2887,-7055,26884.0,29904.0
2888,-6962,26880.0,29903.0
2889,-6722,26879.0,29912.0
2890,-6376,26878.0,29915.0
2891,-8131,26883.0,29912.0
2892,-6223,26886.0,29917.0
2893,-7266,26886.0,29924.0
2894,-8041,26886.0,29921.0
2895,-3569,26883.0,29931.0
2896,-5578,26886.0,29927.0
2897,-4426,26889.0,29925.0
2898,-297,26890.0,29932.0
2899,-1211,26887.0,29936.0
2900,-866,26890.0,29941.0
2901,-2175,26893.0,29941.0
2902,-5015,26895.0,29940.0
2903,-3328,26894.0,29945.0
2904,-4739,26897.0,29953.0
2905,102,26895.0,29949.0
2906,-4014,26897.0,29951.0
2907,-1903,26896.0,29957.0
2908,3030,26900.0,29961.0
2909,1291,26903.0,29961.0
2910,4460,26902.0,29971.0
2911,-906,26901.0,29971.0
2912,2453,26900.0,29968.0
2913,-835,26906.0,29975.0
2914,6191,26912.0,29977.0
2915,6534,26908.0,29984.0
2916,5483,26905.0,29989.0
2917,1928,26912.0,29990.0
2918,5091,26913.0,29992.0
2919,3321,26918.0,29993.0
2920,3641,26915.0,30000.0
2921,1370,26914.0,30005.0
2922,5803,26919.0,30010.0
2923,8107,26918.0,30010.0
2924,4144,26922.0,30012.0
2925,1011,26925.0,30021.0
2926,-228,26923.0,30020.0
2927,3054,26921.0,30029.0
2928,2876,26929.0,30024.0
2929,3596,26926.0,30031.0
2930,696,26933.0,30038.0
2931,2935,26928.0,30040.0
2932,-140,26931.0,30043.0
2933,1120,26930.0,30044.0
2934,-1302,26937.0,30045.0
2935,2123,26935.0,30054.0
2936,1170,26935.0,30054.0
2937,4638,26939.0,30057.0
2938,2316,26937.0,30065.0
2939,4283,26941.0,30066.0
2940,4650,26943.0,30067.0
2941,567,26943.0,30074.0
2942,2594,26941.0,30080.0
2943,1769,26940.0,30086.0
2944,-1012,26943.0,30085.0
2945,-1357,26951.0,30088.0
2946,1988,26949.0,30093.0
2947,432,26948.0,30097.0
2948,1105,26952.0,30104.0
2949,4451,26956.0,30103.0
2950,9441,26950.0,30100.0
2951,10563,26952.0,30097.0
2952,6742,26950.0,30093.0
2953,6451,26938.0,30080.0
2954,5207,26932.0,30061.0
2955,5398,26927.0,30041.0
2956,3807,26929.0,30028.0
2957,3457,26920.0,30010.0
2958,-739,26913.0,30006.0
2959,-3459,26910.0,29989.0
2960,-4190,26907.0,29984.0
2961,-6871,26913.0,29982.0
2962,-4066,26907.0,29979.0
2963,-3629,26903.0,29986.0
2964,-2043,26906.0,29983.0
2965,-1151,26903.0,29984.0
2966,1485,26908.0,29979.0
2967,1600,26909.0,29980.0
2968,3212,26908.0,29980.0
2969,4184,26903.0,29982.0
2970,636,26903.0,29977.0
2971,3548,26899.0,29971.0
2972,739,26903.0,29967.0
2973,-4930,26904.0,29971.0
2974,-4230,26897.0,29969.0
2975,-2825,26894.0,29966.0
2976,-968,26898.0,29962.0
2977,-1678,26900.0,29963.0
2978,-2050,26898.0,29961.0
2979,-2028,26900.0,29962.0
2980,-3771,26897.0,29968.0
2981,-3613,26893.0,29969.0
2982,-5982,26895.0,29966.0
2983,-7257,26901.0,29965.0
2984,-9238,26898.0,29966.0
2985,-7674,26894.0,29959.0
2986,-4478,26895.0,29958.0
2987,-5696,26900.0,29957.0
2988,-7323,26898.0,29954.0
2989,-2413,26894.0,29956.0
2990,-2396,26897.0,29952.0
2991,-2842,26895.0,29955.0
2992,-3560,26891.0,29964.0
2993,-5456,26891.0,29959.0
2994,567,26898.0,29964.0
2995,-118,26893.0,29961.0
2996,-449,26893.0,29965.0
2997,-4675,26894.0,29968.0
2998,-2720,26897.0,29968.0
2999,-3780,26899.0,29968.0
3000,1614,26898.0,29968.0
3001,2426,26895.0,29972.0
3002,643,26900.0,29975.0
3003,1074,26905.0,29976.0
3004,761,26904.0,29979.0
3005,2898,26899.0,29977.0
3006,2568,26898.0,29987.0
3007,-2527,26902.0,29986.0
3008,-556,26904.0,29989.0
3009,266,26904.0,29987.0
3010,-1602,26907.0,29992.0
3011,3026,26903.0,29993.0
3012,4503,26901.0,29991.0
3013,2051,26909.0,30005.0
3014,7543,26911.0,30004.0
3015,7841,26906.0,30010.0
3016,4147,26911.0,30002.0
3017,4644,26914.0,30008.0
3018,5607,26917.0,30017.0
3019,4090,26910.0,30011.0
3020,3256,26913.0,30019.0
3021,2071,26911.0,30019.0
3022,1832,26915.0,30020.0
3023,4413,26915.0,30026.0
3024,4651,26919.0,30028.0
3025,3721,26919.0,30034.0
3026,3517,26915.0,30033.0
3027,2482,26923.0,30037.0
3028,-550,26925.0,30037.0
3029,3160,26920.0,30045.0
3030,-6000,26924.0,30045.0
3031,-2583,26926.0,30050.0
3032,-8122,26925.0,30057.0
3033,-10361,26928.0,30056.0
3034,-7379,26928.0,30055.0
3035,-4715,26929.0,30059.0
3036,-5467,26931.0,30066.0
3037,-3439,26926.0,30068.0
3038,-3443,26936.0,30070.0
3039,1230,26934.0,30075.0
3040,2304,26930.0,30074.0
3041,-89,26931.0,30075.0
3042,2278,26936.0,30078.0
3043,2658,26937.0,30084.0
3044,1194,26941.0,30092.0
3045,2719,26941.0,30087.0
3046,-1971,26940.0,30089.0
3047,-291,26938.0,30091.0
3048,2982,26938.0,30100.0
3049,1514,26946.0,30101.0
3050,-204,26946.0,30106.0
3051,5245,26945.0,30109.0
3052,8507,26946.0,30107.0
3053,3216,26950.0,30116.0
3054,6005,26952.0,30117.0
3055,6165,26951.0,30123.0
3056,9225,26952.0,30127.0
3057,5846,26954.0,30129.0
3058,6161,26956.0,30127.0
3059,6342,26951.0,30129.0
3060,4811,26948.0,30119.0
3061,5474,26944.0,30106.0
3062,9958,26937.0,30097.0
3063,9262,26934.0,30078.0
3064,6286,26931.0,30056.0
3065,3070,26923.0,30049.0
3066,6630,26916.0,30033.0
3067,3509,26911.0,30017.0
3068,4544,26912.0,30011.0
3069,7858,26904.0,30005.0
3070,5639,26907.0,30000.0
3071,6738,26904.0,29995.0
3072,7012,26906.0,29997.0
3073,10874,26907.0,30000.0
3074,6387,26903.0,30000.0
3075,7036,26900.0,30000.0
3076,7677,26904.0,29998.0
3077,10121,26906.0,29996.0
3078,-691,26902.0,29993.0
3079,195,26903.0,29993.0
3080,1880,26896.0,29995.0
3081,1390,26895.0,29983.0
3082,1040,26898.0,29984.0
3083,-631,26902.0,29979.0
3084,3573,26898.0,29981.0
3085,673,26897.0,29976.0
3086,-718,26890.0,29978.0
3087,-2237,26898.0,29980.0
3088,-5567,26897.0,29983.0
3089,-3231,26895.0,29984.0
3090,-5151,26894.0,29980.0
3091,-3625,26892.0,29974.0
3092,-3683,26894.0,29974.0
3093,-2576,26894.0,29972.0
3094,-364,26889.0,29971.0
3095,-4155,26888.0,29968.0
3096,-109,26886.0,29963.0
3097,2540,26895.0,29963.0
3098,1777,26888.0,29966.0
3099,-880,26887.0,29958.0
3100,2985,26887.0,29961.0
3101,2647,26891.0,29960.0
3102,-970,26883.0,29964.0
3103,-1549,26882.0,29971.0
3104,-3835,26887.0,29970.0
3105,-6549,26886.0,29971.0
3106,-6676,26888.0,29968.0
3107,-2440,26894.0,29972.0
3108,-4309,26891.0,29973.0
3109,-3954,26884.0,29981.0
3110,-514,26888.0,29975.0
3111,2907,26892.0,29980.0
3112,-3208,26896.0,29979.0
3113,2343,26887.0,29987.0
3114,2913,26893.0,29987.0
3115,3834,26894.0,29990.0
3116,3857,26901.0,29993.0
3117,3596,26899.0,29994.0
3118,7394,26898.0,29995.0
3119,2708,26897.0,30000.0
3120,1826,26896.0,29999.0
3121,603,26904.0,30002.0
3122,831,26900.0,30003.0
3123,557,26897.0,30008.0
3124,-1208,26900.0,30000.0
3125,659,26901.0,30006.0
3126,6136,26900.0,30014.0
3127,9380,26900.0,30015.0
3128,6391,26907.0,30018.0
3129,4742,26905.0,30016.0
3130,1058,26910.0,30024.0
3131,-3134,26905.0,30014.0
3132,2186,26909.0,30023.0
3133,1743,26906.0,30024.0
3134,-2337,26907.0,30024.0
3135,-818,26913.0,30033.0
3136,1650,26912.0,30030.0
3137,3494,26909.0,30039.0
3138,1701,26910.0,30039.0
3139,3064,26909.0,30040.0
3140,5810,26914.0,30045.0
3141,2603,26917.0,30048.0
3142,4260,26915.0,30048.0
3143,3210,26915.0,30049.0
3144,5299,26921.0,30054.0
3145,5535,26919.0,30051.0
3146,5731,26919.0,30056.0
3147,4248,26921.0,30061.0
3148,2453,26920.0,30062.0
3149,2810,26918.0,30070.0
3150,6614,26927.0,30070.0
3151,5583,26925.0,30074.0
3152,1321,26926.0,30075.0
3153,3972,26922.0,30074.0
3154,4334,26929.0,30086.0
3155,3729,26932.0,30090.0
3156,3370,26933.0,30088.0
3157,7601,26930.0,30092.0
3158,5095,26936.0,30098.0
3159,4528,26933.0,30095.0
3160,3008,26933.0,30103.0
3161,10055,26935.0,30103.0
3162,7589,26936.0,30100.0
3163,5278,26937.0,30105.0
3164,6322,26937.0,30107.0
3165,3480,26934.0,30100.0
3166,7469,26932.0,30090.0
3167,1489,26925.0,30072.0
3168,4424,26921.0,30057.0
3169,4549,26916.0,30042.0
3170,3568,26906.0,30017.0
3171,2075,26897.0,29998.0
3172,-530,26895.0,29989.0
3173,241,26888.0,29977.0
3174,-3965,26887.0,29970.0
3175,-4774,26884.0,29964.0
3176,-7050,26884.0,29963.0
3177,-4536,26884.0,29961.0
3178,-6162,26882.0,29965.0
3179,-10683,26883.0,29965.0
3180,-7188,26881.0,29964.0
3181,-4512,26882.0,29961.0
3182,-4500,26883.0,29963.0
3183,-6241,26879.0,29966.0
3184,-1607,26880.0,29954.0
3185,-3400,26875.0,29958.0
3186,-8008,26875.0,29948.0
3187,-4383,26874.0,29943.0
3188,-1497,26873.0,29941.0
3189,-2230,26877.0,29942.0
3190,472,26869.0,29943.0
3191,-3003,26867.0,29946.0
3192,-108,26872.0,29944.0
3193,-389,26875.0,29941.0
3194,-4184,26872.0,29940.0
3195,-3992,26874.0,29946.0
3196,-465,26870.0,29940.0
3197,5961,26872.0,29937.0
3198,3613,26871.0,29932.0
3199,-717,26869.0,29933.0
3200,-2539,26873.0,29930.0
3201,111,26867.0,29927.0
3202,727,26872.0,29923.0
3203,-1609,26864.0,29922.0
3204,106,26865.0,29922.0
3205,-1910,26868.0,29922.0
3206,-369,26867.0,29924.0
3207,-2052,26869.0,29923.0
3208,-4988,26865.0,29927.0
3209,-1712,26871.0,29926.0
3210,-2271,26870.0,29929.0
3211,-4575,26869.0,29936.0
3212,-4670,26866.0,29934.0
3213,-4951,26870.0,29933.0
3214,3307,26873.0,29936.0
3215,1689,26872.0,29945.0
3216,419,26871.0,29944.0
3217,2142,26875.0,29945.0
3218,1873,26869.0,29946.0
3219,2167,26879.0,29945.0
3220,1415,26878.0,29946.0
3221,1224,26877.0,29955.0
3222,-1856,26872.0,29951.0
3223,461,26877.0,29954.0
3224,3760,26879.0,29955.0
3225,-1255,26880.0,29957.0
3226,-3768,26876.0,29961.0
3227,1330,26880.0,29963.0
3228,2286,26881.0,29963.0
3229,2002,26887.0,29967.0
3230,-3766,26884.0,29968.0
3231,-4137,26885.0,29976.0
3232,3879,26881.0,29974.0
3233,-756,26882.0,29974.0
3234,-6115,26886.0,29976.0
3235,-9629,26892.0,29977.0
3236,-3970,26888.0,29986.0
3237,-236,26886.0,29983.0
3238,-2357,26889.0,29987.0
3239,-5741,26891.0,29990.0
3240,-3459,26890.0,29991.0
3241,-425,26890.0,29997.0
3242,3361,26888.0,29998.0
3243,-2897,26894.0,29999.0
3244,1862,26890.0,30006.0
3245,2650,26897.0,30004.0
3246,2083,26897.0,30007.0
3247,-1,26892.0,30013.0
3248,1364,26894.0,30013.0
3249,-2088,26901.0,30015.0
3250,4410,26903.0,30020.0
3251,1344,26899.0,30023.0
3252,-5040,26904.0,30022.0
3253,-3975,26903.0,30023.0
3254,-6768,26911.0,30024.0
3255,-2203,26907.0,30032.0
3256,-7179,26903.0,30035.0
3257,-5834,26903.0,30038.0
3258,-3924,26906.0,30042.0
3259,-6529,26908.0,30044.0
3260,-4486,26914.0,30047.0
3261,-4447,26912.0,30054.0
3262,-5830,26914.0,30052.0
3263,-6320,26911.0,30060.0
3264,-2572,26916.0,30059.0
3265,-1905,26919.0,30060.0
3266,-2491,26921.0,30064.0
3267,-310,26914.0,30064.0
3268,410,26914.0,30057.0
3269,-2254,26915.0,30048.0
3270,-5261,26904.0,30028.0
3271,-10506,26899.0,30017.0
3272,-10014,26895.0,29998.0
3273,-6047,26882.0,29973.0
3274,-4924,26879.0,29961.0
3275,-10168,26876.0,29943.0
3276,-5818,26874.0,29929.0
3277,-2132,26866.0,29927.0
3278,-779,26860.0,29921.0
3279,-2301,26862.0,29918.0
3280,1252,26868.0,29916.0
3281,-829,26862.0,29922.0
3282,-3394,26861.0,29920.0
3283,-2602,26863.0,29916.0
3284,-3550,26862.0,29915.0
3285,-3273,26865.0,29908.0
3286,3514,26861.0,29910.0
3287,3625,26856.0,29912.0
3288,4619,26855.0,29904.0
3289,117,26852.0,29904.0
3290,4510,26857.0,29899.0
3291,4756,26855.0,29898.0
3292,1278,26849.0,29902.0
3293,7482,26851.0,29902.0
3294,8569,26851.0,29898.0
3295,5152,26857.0,29898.0
3296,4853,26853.0,29897.0
3297,9744,26852.0,29900.0
3298,9736,26852.0,29898.0
3299,9521,26847.0,29897.0
3300,9464,26857.0,29892.0
3301,4579,26849.0,29894.0
3302,5766,26845.0,29889.0
3303,6534,26848.0,29885.0
3304,10004,26848.0,29884.0
3305,6301,26844.0,29881.0
3306,4188,26843.0,29877.0
3307,9379,26848.0,29878.0
3308,7952,26841.0,29880.0
3309,7815,26849.0,29880.0
3310,7682,26844.0,29884.0
3311,8804,26843.0,29882.0
3312,5996,26846.0,29890.0
3313,8560,26845.0,29894.0
3314,9553,26847.0,29895.0
3315,5861,26852.0,29893.0
3316,9531,26853.0,29897.0
3317,5710,26855.0,29897.0
3318,-6872,26855.0,29902.0
3319,-2825,26856.0,29906.0
3320,-9389,26862.0,29908.0
3321,-7533,26854.0,29910.0
3322,-7658,26854.0,29908.0
3323,-9071,26859.0,29912.0
3324,-6658,26864.0,29917.0
3325,-4948,26855.0,29920.0
3326,-8655,26859.0,29921.0
3327,-9010,26867.0,29920.0
3328,-8176,26864.0,29926.0
3329,-5746,26866.0,29927.0
3330,-6828,26867.0,29931.0
3331,-14082,26864.0,29931.0
3332,-11132,26864.0,29933.0
3333,-7593,26864.0,29936.0
3334,-5261,26870.0,29939.0
3335,-10506,26874.0,29945.0
3336,-10014,26868.0,29948.0
3337,-6047,26871.0,29946.0
3338,-4924,26873.0,29948.0
3339,-10168,26871.0,29954.0
3340,-5818,26872.0,29961.0
3341,-2132,26877.0,29959.0
3342,-779,26870.0,29960.0
3343,-2301,26874.0,29961.0
3344,1252,26877.0,29967.0
3345,-829,26881.0,29973.0
3346,-3394,26875.0,29973.0
3347,-2602,26880.0,29978.0
3348,-3550,26882.0,29983.0
3349,-3273,26882.0,29981.0
3350,-3092,26885.0,29984.0
3351,262,26889.0,29993.0
3352,-5880,26888.0,29988.0
3353,-8102,26890.0,29987.0
3354,-3009,26892.0,29996.0
3355,209,26891.0,30003.0
3356,-2929,26893.0,30005.0
3357,-6513,26891.0,30006.0
3358,-2376,26892.0,30006.0
3359,-524,26891.0,30007.0
3360,-2440,26900.0,30015.0
3361,-4684,26894.0,30022.0
3362,-7945,26902.0,30025.0
3363,-1601,26898.0,30022.0
3364,-1294,26901.0,30030.0
3365,-2581,26902.0,30032.0
3366,5225,26901.0,30037.0
3367,5064,26906.0,30041.0
3368,8814,26907.0,30041.0
3369,6473,26906.0,30042.0
3370,3741,26906.0,30038.0
3371,1315,26905.0,30036.0
3372,1419,26899.0,30025.0
3373,3243,26891.0,30009.0
3374,5123,26882.0,29988.0
3375,2155,26881.0,29971.0
3376,116,26879.0,29955.0
3377,1693,26865.0,29943.0
3378,-3358,26861.0,29927.0
3379,521,26861.0,29916.0
3380,7297,26862.0,29906.0
3381,-1092,26856.0,29907.0
3382,15502,26853.0,29909.0
3383,13643,26852.0,29906.0
3384,11077,26850.0,29902.0
3385,11550,26856.0,29904.0
3386,9772,26859.0,29906.0
3387,5740,26851.0,29908.0
3388,5864,26852.0,29908.0
3389,8749,26853.0,29900.0
3390,11977,26854.0,29902.0
3391,4679,26846.0,29897.0
3392,2435,26846.0,29895.0
3393,4688,26847.0,29891.0
3394,5154,26847.0,29889.0
3395,3134,26850.0,29888.0
3396,-1112,26851.0,29893.0
3397,-151,26847.0,29894.0
3398,3167,26845.0,29897.0
3399,2492,26849.0,29891.0
3400,-1093,26850.0,29894.0
3401,2957,26842.0,29897.0
3402,1159,26847.0,29893.0
3403,4176,26843.0,29891.0
3404,5207,26845.0,29885.0
3405,724,26842.0,29886.0
3406,2449,26840.0,29879.0
3407,1522,26835.0,29876.0
3408,2780,26837.0,29879.0
3409,513,26842.0,29873.0
3410,1127,26846.0,29879.0
3411,-1789,26841.0,29877.0
3412,-2061,26836.0,29883.0
3413,1321,26841.0,29888.0
3414,13233,26841.0,29883.0
3415,4661,26845.0,29892.0
3416,8369,26843.0,29895.0
3417,15155,26844.0,29896.0
3418,14965,26844.0,29893.0
3419,14832,26848.0,29896.0
3420,11796,26846.0,29902.0
3421,10332,26845.0,29900.0
3422,9606,26845.0,29908.0
3423,9834,26849.0,29904.0
3424,7668,26854.0,29907.0
3425,5801,26851.0,29915.0
3426,9154,26848.0,29917.0
3427,11787,26850.0,29920.0
3428,14355,26853.0,29918.0
3429,13724,26855.0,29922.0
3430,5225,26858.0,29929.0
3431,5064,26856.0,29927.0
3432,8814,26860.0,29926.0
3433,6473,26861.0,29931.0
3434,3741,26857.0,29929.0
3435,1315,26856.0,29935.0
3436,1419,26861.0,29936.0
3437,3243,26861.0,29939.0
3438,5123,26866.0,29943.0
3439,2155,26864.0,29945.0
3440,116,26859.0,29947.0
3441,1693,26867.0,29949.0
3442,-3358,26866.0,29955.0
3443,521,26867.0,29955.0
3444,7297,26868.0,29954.0
3445,-1092,26865.0,29964.0
3446,-3753,26874.0,29963.0
3447,2855,26870.0,29967.0
3448,4449,26870.0,29972.0
3449,2714,26870.0,29970.0
3450,-326,26871.0,29981.0
3451,-7396,26874.0,29981.0
3452,-3160,26879.0,29979.0
3453,2373,26874.0,29985.0
3454,361,26881.0,29983.0
3455,-1988,26877.0,29991.0
3456,-3908,26885.0,29994.0
3457,-254,26885.0,29997.0
3458,3474,26887.0,29998.0
3459,7555,26886.0,30002.0
3460,2936,26892.0,30006.0
3461,-804,26888.0,30011.0
3462,-11102,26889.0,30012.0
3463,-10063,26889.0,30016.0
3464,-9095,26894.0,30022.0
3465,-12287,26893.0,30028.0
3466,-12527,26895.0,30029.0
3467,-11319,26897.0,30035.0
3468,-12283,26900.0,30032.0
3469,-13936,26895.0,30035.0
3470,-8061,26896.0,30038.0
3471,-11807,26899.0,30035.0
3472,-16464,26893.0,30027.0
3473,-13186,26892.0,30009.0
3474,-11853,26882.0,29991.0
3475,-15001,26878.0,29985.0
3476,-9809,26875.0,29959.0
3477,-9507,26864.0,29948.0
3478,-4188,26863.0,29925.0
3479,2794,26853.0,29918.0
3480,4395,26850.0,29909.0
3481,-367,26850.0,29903.0
3482,-1851,26847.0,29908.0
3483,2263,26845.0,29904.0
3484,4541,26845.0,29905.0
3485,415,26852.0,29904.0
3486,708,26849.0,29908.0
3487,-3355,26846.0,29910.0
3488,2148,26847.0,29905.0
3489,4903,26851.0,29906.0
3490,-502,26843.0,29906.0
3491,-3441,26847.0,29902.0
3492,-1555,26839.0,29901.0
3493,-4700,26845.0,29896.0
3494,-2710,26839.0,29901.0
3495,6288,26844.0,29894.0
3496,1779,26848.0,29896.0
3497,-69,26843.0,29894.0
3498,9529,26842.0,29900.0
3499,6109,26846.0,29895.0
3500,5110,26841.0,29899.0
3501,9013,26844.0,29896.0
3502,-295,26845.0,29896.0
3503,-3211,26843.0,29897.0
3504,2583,26837.0,29890.0
3505,-376,26838.0,29892.0
3506,-4768,26837.0,29890.0
3507,-2821,26837.0,29878.0
3508,-1475,26840.0,29886.0
3509,-4990,26842.0,29884.0
3510,6150,26840.0,29885.0
3511,3231,26835.0,29883.0
3512,7133,26837.0,29887.0
3513,8649,26840.0,29895.0
3514,13937,26840.0,29893.0
3515,12629,26841.0,29894.0
3516,5380,26842.0,29902.0
3517,12842,26845.0,29901.0
3518,15285,26839.0,29904.0
3519,8331,26842.0,29899.0
3520,13697,26844.0,29911.0
3521,14543,26848.0,29912.0
3522,9664,26847.0,29912.0
3523,17554,26846.0,29910.0
3524,21314,26849.0,29915.0
3525,15251,26853.0,29916.0
3526,14262,26847.0,29917.0
3527,16497,26849.0,29920.0
3528,11318,26845.0,29919.0
3529,14081,26852.0,29920.0
3530,11650,26856.0,29929.0
3531,7576,26849.0,29932.0
3532,11434,26851.0,29927.0
3533,12060,26855.0,29933.0
3534,9806,26858.0,29934.0
3535,10779,26857.0,29932.0
3536,7279,26862.0,29944.0
3537,4280,26859.0,29944.0
3538,5291,26861.0,29947.0
3539,7023,26857.0,29948.0
3540,4414,26863.0,29947.0
3541,2216,26871.0,29953.0
3542,1889,26858.0,29955.0
3543,1224,26860.0,29961.0
3544,4175,26865.0,29956.0
3545,3160,26871.0,29959.0
3546,189,26870.0,29972.0
3547,-2511,26869.0,29970.0
3548,-2384,26868.0,29969.0
3549,-5985,26872.0,29973.0
3550,-7933,26874.0,29978.0
3551,-3294,26872.0,29985.0
3552,-7414,26874.0,29979.0
3553,-9513,26872.0,29991.0
3554,-3474,26874.0,29988.0
3555,-7242,26880.0,29988.0
3556,-13431,26878.0,29996.0
3557,-10545,26876.0,29996.0
3558,-12380,26878.0,29998.0
3559,-13382,26881.0,29999.0
3560,-13070,26883.0,30004.0
3561,-10162,26883.0,30015.0
3562,-15677,26882.0,30010.0
3563,-13959,26883.0,30011.0
3564,-10589,26890.0,30020.0
3565,-14577,26892.0,30020.0
3566,-16525,26889.0,30019.0
3567,-13248,26888.0,30034.0
3568,-12698,26893.0,30029.0
3569,-11935,26890.0,30029.0
3570,-11887,26894.0,30036.0
3571,-13726,26897.0,30042.0
3572,-9992,26893.0,30042.0
3573,-13422,26891.0,30037.0
3574,6817,26889.0,30023.0
3575,8445,26889.0,30020.0
3576,5899,26875.0,29994.0
3577,9878,26867.0,29977.0
3578,16877,26864.0,29958.0
3579,6968,26857.0,29937.0
3580,6375,26850.0,29919.0
3581,13839,26841.0,29916.0
3582,10031,26844.0,29902.0
3583,13362,26839.0,29902.0
3584,10556,26841.0,29896.0
3585,10290,26839.0,29895.0
3586,13591,26837.0,29900.0
3587,15828,26838.0,29901.0
3588,13854,26839.0,29903.0
3589,14377,26844.0,29905.0
3590,18150,26838.0,29902.0
3591,15638,26835.0,29899.0
3592,17850,26841.0,29899.0
3593,15361,26843.0,29893.0
3594,17734,26833.0,29890.0
3595,18515,26835.0,29887.0
3596,17224,26835.0,29880.0
3597,16322,26832.0,29883.0
3598,11289,26833.0,29879.0
3599,14275,26829.0,29883.0
3600,16558,26825.0,29882.0
3601,17075,26827.0,29882.0
3602,17103,26828.0,29884.0
3603,14780,26833.0,29880.0
3604,18175,26827.0,29876.0
3605,16903,26826.0,29873.0
3606,-15502,26826.0,29874.0
3607,-18226,26823.0,29863.0
3608,-13172,26823.0,29864.0
3609,-14439,26820.0,29860.0
3610,-15790,26819.0,29856.0
3611,-13680,26823.0,29857.0
3612,-14132,26820.0,29856.0
3613,-8606,26817.0,29859.0
3614,-13969,26817.0,29862.0
3615,-17158,26819.0,29861.0
3616,-12486,26822.0,29867.0
3617,-13481,26819.0,29868.0
3618,-11356,26820.0,29866.0
3619,-11790,26826.0,29873.0
3620,-10999,26825.0,29874.0
3621,-7399,26825.0,29878.0
3622,-9921,26828.0,29879.0
3623,-11402,26830.0,29882.0
3624,-8419,26832.0,29887.0
3625,-7123,26834.0,29891.0
3626,-3160,26831.0,29892.0
3627,-2514,26832.0,29895.0
3628,-2578,26834.0,29896.0
3629,-2612,26839.0,29902.0
3630,390,26839.0,29908.0
3631,2154,26839.0,29906.0
3632,-1004,26843.0,29908.0
3633,-1120,26843.0,29913.0
3634,1459,26838.0,29919.0
3635,202,26842.0,29917.0
3636,-800,26848.0,29919.0
3637,30,26845.0,29922.0
3638,2781,26846.0,29922.0
3639,7269,26846.0,29929.0
3640,3703,26851.0,29930.0
3641,3032,26843.0,29933.0
3642,2887,26849.0,29931.0
3643,1257,26849.0,29932.0
3644,-174,26849.0,29937.0
3645,318,26850.0,29938.0
3646,3190,26848.0,29943.0
3647,4566,26850.0,29943.0
3648,1579,26851.0,29942.0
3649,2457,26850.0,29946.0
3650,5935,26859.0,29951.0
3651,7712,26851.0,29951.0
3652,4078,26853.0,29952.0
3653,4809,26858.0,29951.0
3654,8266,26857.0,29959.0
3655,7849,26854.0,29960.0
3656,5216,26859.0,29962.0
3657,4877,26860.0,29961.0
3658,6567,26861.0,29962.0
3659,5894,26858.0,29973.0
3660,5775,26857.0,29971.0
3661,8064,26859.0,29971.0
3662,7242,26864.0,29974.0
3663,6728,26865.0,29973.0
3664,5982,26869.0,29979.0
3665,3913,26862.0,29981.0
3666,4820,26863.0,29985.0
3667,4136,26867.0,29983.0
3668,7746,26868.0,29987.0
3669,3708,26865.0,29998.0
3670,-8892,26872.0,29990.0
3671,-2754,26869.0,29994.0
3672,-5045,26874.0,29996.0
3673,-6768,26874.0,29992.0
3674,-8989,26865.0,29984.0
3675,-9674,26860.0,29971.0
3676,-8559,26854.0,29950.0
3677,-8213,26853.0,29934.0
3678,-3300,26840.0,29918.0
3679,-10900,26833.0,29899.0
3680,-6076,26829.0,29882.0
3681,-7075,26830.0,29868.0
3682,-5202,26820.0,29861.0
3683,-759,26819.0,29858.0
3684,-2027,26819.0,29851.0
3685,-4550,26817.0,29849.0
3686,699,26818.0,29853.0
3687,684,26814.0,29858.0
3688,-2725,26818.0,29852.0
3689,613,26812.0,29856.0
3690,-3621,26815.0,29853.0
3691,-1441,26819.0,29850.0
3692,-925,26813.0,29850.0
3693,-4628,26810.0,29847.0
3694,-6718,26812.0,29844.0
3695,-7233,26811.0,29841.0
3696,-4113,26812.0,29842.0
3697,-2602,26812.0,29844.0
3698,-7406,26811.0,29844.0
3699,-6139,26808.0,29841.0
3700,-6714,26811.0,29843.0
3701,-8799,26809.0,29846.0
3702,10460,26807.0,29846.0
3703,10263,26807.0,29845.0
3704,12885,26807.0,29840.0
3705,14650,26810.0,29841.0
3706,12681,26802.0,29839.0
3707,16670,26803.0,29836.0
3708,10981,26804.0,29832.0
3709,13031,26805.0,29826.0
3710,16989,26803.0,29829.0
3711,15258,26800.0,29831.0
3712,18035,26806.0,29824.0
3713,16365,26805.0,29830.0
3714,15437,26804.0,29838.0
3715,13246,26804.0,29837.0
3716,10663,26801.0,29842.0
3717,9595,26803.0,29847.0
3718,8266,26809.0,29841.0
3719,7849,26817.0,29852.0
3720,5216,26812.0,29854.0
3721,4877,26809.0,29857.0
3722,6567,26813.0,29863.0
3723,5894,26818.0,29860.0
3724,5775,26817.0,29866.0
3725,8064,26820.0,29871.0
3726,7242,26818.0,29871.0
3727,6728,26828.0,29873.0
3728,5982,26823.0,29877.0
3729,3913,26826.0,29880.0
3730,4820,26824.0,29886.0
3731,4136,26822.0,29889.0
3732,7746,26828.0,29890.0
3733,3708,26829.0,29894.0
3734,2056,26831.0,29896.0
3735,369,26834.0,29902.0
3736,398,26830.0,29907.0
3737,3153,26829.0,29912.0
3738,1998,26834.0,29910.0
3739,3778,26838.0,29911.0
3740,6891,26836.0,29913.0
3741,6789,26838.0,29918.0
3742,1716,26838.0,29921.0
3743,4029,26848.0,29926.0
3744,3041,26843.0,29930.0
3745,7270,26846.0,29934.0
3746,2850,26846.0,29938.0
3747,6087,26845.0,29940.0
3748,6981,26853.0,29945.0
3749,3758,26856.0,29949.0
3750,-7182,26853.0,29956.0
3751,-2710,26857.0,29960.0
3752,-5314,26864.0,29968.0
3753,-6457,26862.0,29975.0
3754,-5222,26865.0,29979.0
3755,-7016,26868.0,29985.0
3756,-3819,26865.0,29991.0
3757,-5108,26869.0,29993.0
3758,-8564,26869.0,29997.0
3759,-3939,26872.0,30001.0
3760,-3261,26876.0,30004.0
3761,-10849,26876.0,30001.0
3762,-8441,26874.0,30004.0
3763,-8637,26873.0,29996.0
3764,-6179,26865.0,29985.0
3765,-3763,26866.0,29977.0
3766,-9319,26860.0,29958.0
3767,-10444,26849.0,29943.0
3768,-14261,26845.0,29921.0
3769,-12692,26842.0,29917.0
3770,-9316,26841.0,29907.0
3771,-9433,26835.0,29896.0
3772,-10548,26835.0,29893.0
3773,-6426,26834.0,29890.0
3774,-5013,26833.0,29897.0
3775,-4753,26838.0,29898.0
3776,-7524,26839.0,29899.0
3777,-5972,26842.0,29906.0
3778,-3441,26844.0,29907.0
3779,-7285,26837.0,29910.0
3780,-7392,26843.0,29910.0
3781,-11268,26846.0,29913.0
3782,-6311,26845.0,29920.0
3783,-8972,26840.0,29911.0
3784,-12237,26837.0,29904.0
3785,-9708,26830.0,29902.0
3786,-7779,26832.0,29904.0
3787,-3404,26832.0,29900.0
3788,-2866,26832.0,29898.0
3789,-1472,26830.0,29896.0
3790,319,26833.0,29899.0
3791,2758,26832.0,29901.0
3792,331,26827.0,29897.0
3793,-4972,26824.0,29896.0
3794,1296,26831.0,29891.0
3795,5955,26827.0,29890.0
3796,61,26820.0,29890.0
3797,-972,26824.0,29884.0
3798,-7405,26823.0,29883.0
3799,-9390,26826.0,29881.0
3800,-9181,26823.0,29883.0
3801,-10664,26825.0,29884.0
3802,-5591,26821.0,29880.0
3803,-5472,26822.0,29886.0
3804,-10084,26825.0,29890.0
3805,-8540,26824.0,29896.0
3806,-6128,26827.0,29896.0
3807,-4682,26827.0,29898.0
3808,-8635,26832.0,29901.0
3809,-9011,26830.0,29903.0
3810,-7104,26834.0,29904.0
3811,-6653,26833.0,29907.0
3812,-7392,26830.0,29908.0
3813,-5510,26838.0,29909.0
3814,-7182,26836.0,29917.0
3815,-2710,26841.0,29916.0
3816,-5314,26833.0,29921.0
3817,-6457,26836.0,29924.0
3818,-5222,26845.0,29928.0
3819,-7016,26839.0,29931.0
3820,-3819,26839.0,29929.0
3821,-5108,26842.0,29932.0
3822,-8564,26841.0,29931.0
3823,-3939,26842.0,29929.0
3824,-3261,26843.0,29935.0
3825,-10849,26840.0,29940.0
3826,-8441,26845.0,29934.0
3827,-8637,26849.0,29940.0
3828,-6179,26845.0,29943.0
3829,-3763,26848.0,29952.0
3830,-5625,26843.0,29948.0
3831,-2070,26846.0,29945.0
3832,-4111,26846.0,29947.0
3833,-8651,26845.0,29954.0
3834,-5599,26847.0,29959.0
3835,-4541,26847.0,29959.0
3836,-4549,26851.0,29962.0
3837,-8440,26855.0,29966.0
3838,-6203,26850.0,29974.0
3839,-3276,26852.0,29975.0
3840,-6832,26857.0,29974.0
3841,-7664,26858.0,29975.0
3842,-7327,26859.0,29977.0
3843,-7174,26856.0,29972.0
3844,-4984,26849.0,29964.0
3845,-4240,26847.0,29944.0
3846,3788,26844.0,29936.0
3847,7467,26839.0,29934.0
3848,12484,26837.0,29906.0
3849,11335,26831.0,29908.0
3850,9286,26824.0,29895.0
3851,8624,26825.0,29890.0
3852,14530,26825.0,29895.0
3853,10723,26817.0,29898.0
3854,9322,26824.0,29893.0
3855,11811,26828.0,29895.0
3856,11160,26833.0,29903.0
3857,12898,26823.0,29911.0
3858,9789,26835.0,29907.0
3859,7331,26832.0,29914.0
3860,11016,26830.0,29917.0
3861,6811,26836.0,29918.0
3862,5919,26840.0,29921.0
3863,7839,26835.0,29926.0
3864,8019,26836.0,29934.0
3865,7443,26838.0,29938.0
3866,11899,26846.0,29938.0
3867,13347,26842.0,29942.0
3868,11918,26844.0,29944.0
3869,14917,26845.0,29942.0
3870,13422,26849.0,29942.0
3871,13408,26845.0,29947.0
3872,12669,26841.0,29939.0
3873,10191,26841.0,29941.0
3874,11075,26842.0,29937.0
3875,10928,26843.0,29936.0
3876,9297,26844.0,29933.0
3877,9270,26832.0,29936.0
3878,9826,26835.0,29931.0
3879,10307,26837.0,29930.0
3880,11357,26839.0,29934.0
3881,10166,26838.0,29935.0
3882,11048,26838.0,29935.0
3883,12564,26838.0,29936.0
3884,10924,26842.0,29936.0
3885,9142,26844.0,29939.0
3886,10326,26840.0,29940.0
3887,9534,26839.0,29948.0
3888,8441,26841.0,29952.0
3889,4659,26841.0,29951.0
3890,5896,26850.0,29956.0
3891,1995,26847.0,29957.0
3892,-2703,26847.0,29959.0
3893,-123,26846.0,29968.0
3894,-10523,26854.0,29965.0
3895,-9553,26852.0,29965.0
3896,-5158,26850.0,29972.0
3897,-5571,26855.0,29973.0
3898,-7473,26853.0,29978.0
3899,-5237,26858.0,29979.0
3900,-3235,26858.0,29983.0
3901,-1511,26855.0,29981.0
3902,-2226,26852.0,29984.0
3903,-1178,26855.0,29983.0
3904,-1721,26855.0,29987.0
3905,-1299,26852.0,29993.0
3906,-3068,26858.0,29985.0
3907,2520,26853.0,29993.0
3908,2096,26860.0,29986.0
3909,2246,26855.0,29991.0
3910,3788,26854.0,29995.0
3911,7467,26854.0,29992.0
3912,12484,26856.0,29998.0
3913,11335,26859.0,29998.0
3914,9286,26863.0,29993.0
3915,8624,26853.0,29986.0
3916,14530,26852.0,29980.0
3917,10723,26849.0,29968.0
3918,9322,26844.0,29954.0
3919,11811,26839.0,29937.0
3920,11160,26828.0,29917.0
3921,12898,26826.0,29902.0
3922,9789,26819.0,29886.0
3923,7331,26809.0,29874.0
3924,11016,26803.0,29861.0
3925,6811,26804.0,29854.0
3926,9794,26800.0,29854.0
3927,12799,26802.0,29850.0
3928,9488,26799.0,29848.0
3929,8071,26795.0,29846.0
3930,8895,26796.0,29849.0
3931,8400,26800.0,29847.0
3932,7876,26804.0,29847.0
3933,3266,26799.0,29849.0
3934,5128,26799.0,29846.0
3935,5152,26794.0,29846.0
3936,1492,26799.0,29845.0
3937,5888,26801.0,29844.0
3938,3252,26798.0,29845.0
3939,2527,26796.0,29847.0
3940,1390,26797.0,29848.0
3941,4883,26799.0,29848.0
3942,-1053,26801.0,29854.0
3943,-1153,26796.0,29843.0
3944,-613,26797.0,29840.0
3945,-2172,26799.0,29836.0
3946,-2350,26788.0,29837.0
3947,-1352,26790.0,29833.0
3948,-1461,26793.0,29826.0
3949,-1022,26789.0,29819.0
3950,-5340,26783.0,29819.0
3951,-2050,26783.0,29811.0
3952,-369,26781.0,29810.0
3953,-763,26780.0,29806.0
3954,-4715,26780.0,29806.0
3955,-4531,26782.0,29800.0
3956,-965,26783.0,29801.0
3957,-1338,26782.0,29800.0
3958,-5298,26776.0,29803.0
3959,-3649,26771.0,29802.0
3960,-3099,26779.0,29803.0
3961,-6455,26776.0,29800.0
3962,-4472,26776.0,29796.0
3963,-3439,26777.0,29803.0
3964,-2554,26778.0,29807.0
3965,-1389,26779.0,29801.0
3966,-1346,26778.0,29796.0
3967,-3854,26777.0,29807.0
3968,-5728,26781.0,29813.0
3969,-7233,26781.0,29822.0
3970,-7602,26785.0,29814.0
3971,-10032,26791.0,29822.0
3972,-6815,26791.0,29830.0
3973,-6759,26788.0,29832.0
3974,-5810,26794.0,29835.0
3975,-3758,26792.0,29840.0
3976,-3003,26797.0,29841.0
3977,-8072,26795.0,29851.0
3978,-6780,26795.0,29847.0
3979,-3629,26798.0,29854.0
3980,-5569,26801.0,29850.0
3981,-5979,26806.0,29863.0
3982,-619,26801.0,29863.0
3983,-1115,26802.0,29865.0
3984,-3031,26803.0,29868.0
3985,-1190,26808.0,29868.0
3986,-1211,26802.0,29870.0
3987,-2146,26798.0,29858.0
3988,-4169,26796.0,29852.0
3989,-3038,26789.0,29829.0
3990,3156,26786.0,29813.0
3991,6304,26777.0,29799.0
3992,7398,26771.0,29787.0
3993,9070,26763.0,29775.0
3994,5864,26764.0,29762.0
3995,3968,26763.0,29762.0
3996,5194,26766.0,29762.0
3997,1354,26762.0,29755.0
3998,1378,26764.0,29759.0
3999,3602,26767.0,29770.0
4000,6538,26767.0,29767.0
4001,5810,26768.0,29777.0
4002,2615,26762.0,29770.0
4003,2683,26770.0,29773.0
4004,5250,26769.0,29773.0
4005,5955,26769.0,29773.0
4006,5282,26769.0,29767.0
4007,4989,26765.0,29776.0
4008,7451,26763.0,29765.0
4009,6963,26769.0,29767.0
4010,1975,26770.0,29770.0
4011,4394,26766.0,29770.0
4012,5163,26767.0,29776.0
4013,5316,26773.0,29774.0
4014,5907,26768.0,29783.0
4015,11816,26771.0,29783.0
4016,6422,26768.0,29784.0
4017,5726,26766.0,29784.0
4018,5968,26770.0,29781.0
4019,6425,26768.0,29780.0
4020,9933,26768.0,29779.0
4021,3824,26762.0,29778.0
4022,7789,26772.0,29774.0
4023,8558,26772.0,29774.0
4024,7007,26768.0,29777.0
4025,6032,26770.0,29780.0
4026,1637,26770.0,29781.0
4027,5237,26780.0,29786.0
4028,998,26773.0,29788.0
4029,4814,26772.0,29792.0
4030,7941,26779.0,29805.0
4031,3462,26776.0,29803.0
4032,7093,26782.0,29804.0
4033,5680,26781.0,29807.0
4034,5265,26781.0,29818.0
4035,2630,26785.0,29815.0
4036,-2600,26787.0,29819.0
4037,1033,26793.0,29826.0
4038,-5235,26790.0,29829.0
4039,-7038,26788.0,29836.0
4040,-9853,26795.0,29836.0
4041,-12117,26796.0,29839.0
4042,-4719,26797.0,29842.0
4043,-4931,26798.0,29846.0
4044,-5735,26795.0,29852.0
4045,-8659,26798.0,29851.0
4046,-6511,26804.0,29854.0
4047,-3197,26801.0,29854.0
4048,-7180,26802.0,29856.0
4049,-8705,26798.0,29861.0
4050,-5907,26804.0,29864.0
4051,-6038,26806.0,29861.0
4052,-4708,26804.0,29867.0
4053,-13368,26807.0,29876.0
4054,3059,26811.0,29878.0
4055,4578,26818.0,29880.0
4056,5703,26815.0,29879.0
4057,2565,26816.0,29884.0
4058,1359,26814.0,29893.0
4059,1064,26814.0,29893.0
4060,-1408,26821.0,29899.0
4061,-1138,26820.0,29899.0
4062,-5038,26819.0,29899.0
4063,1050,26819.0,29904.0
4064,540,26821.0,29908.0
4065,610,26825.0,29909.0
4066,-1621,26819.0,29906.0
4067,-3426,26818.0,29898.0
4068,-1349,26813.0,29889.0
4069,-1006,26808.0,29864.0
4070,276,26803.0,29850.0
4071,1559,26793.0,29829.0
4072,3688,26786.0,29811.0
4073,4211,26779.0,29796.0
4074,5162,26778.0,29785.0
4075,-662,26769.0,29777.0
4076,3638,26771.0,29769.0
4077,4498,26767.0,29766.0
4078,1730,26766.0,29763.0
4079,10094,26764.0,29761.0
4080,6751,26763.0,29758.0
4081,5683,26764.0,29759.0
4082,6417,26762.0,29754.0
4083,-1763,26754.0,29750.0
4084,606,26753.0,29743.0
4085,1565,26750.0,29735.0
4086,-8522,26745.0,29718.0
4087,-4992,26738.0,29714.0
4088,-10244,26737.0,29697.0
4089,-10350,26730.0,29689.0
4090,-7990,26723.0,29680.0
4091,-5812,26719.0,29670.0
4092,-8943,26719.0,29670.0
4093,-5931,26713.0,29659.0
4094,-3030,26717.0,29662.0
4095,-4915,26713.0,29661.0
4096,-2748,26711.0,29652.0
4097,-3693,26712.0,29654.0
4098,-4,26706.0,29651.0
4099,-1886,26707.0,29646.0
4100,-7209,26708.0,29635.0
4101,-4182,26705.0,29638.0
4102,-1438,26703.0,29635.0
4103,499,26699.0,29629.0
4104,-472,26701.0,29630.0
4105,1829,26699.0,29626.0
4106,432,26698.0,29622.0
4107,1491,26700.0,29621.0
4108,3081,26695.0,29623.0
4109,1182,26700.0,29622.0
4110,-1909,26696.0,29622.0
4111,2335,26700.0,29626.0
4112,201,26701.0,29630.0
4113,-4905,26696.0,29627.0
4114,-1835,26699.0,29623.0
4115,-2830,26696.0,29623.0
4116,716,26700.0,29625.0
4117,-1160,26698.0,29623.0
4118,-884,26698.0,29625.0
4119,-266,26698.0,29626.0
4120,-4586,26699.0,29628.0
4121,-4751,26699.0,29633.0
4122,-1257,26701.0,29636.0
4123,707,26705.0,29638.0
4124,-668,26702.0,29643.0
4125,-3010,26703.0,29642.0
4126,-1564,26712.0,29650.0
4127,-633,26708.0,29657.0
4128,-1948,26710.0,29656.0
4129,-1322,26713.0,29660.0
4130,1298,26718.0,29667.0
4131,4664,26717.0,29670.0
4132,572,26720.0,29673.0
4133,-2106,26718.0,29679.0
4134,2754,26717.0,29683.0
4135,841,26727.0,29688.0
4136,3622,26731.0,29692.0
4137,1107,26732.0,29700.0
4138,-357,26729.0,29701.0
4139,560,26729.0,29705.0
4140,-1351,26739.0,29719.0
4141,-2297,26736.0,29724.0
4142,609,26736.0,29730.0
4143,2271,26745.0,29728.0
4144,5587,26749.0,29741.0
4145,7055,26748.0,29738.0
4146,5322,26756.0,29745.0
4147,1675,26750.0,29750.0
4148,1673,26749.0,29750.0
4149,-121,26756.0,29753.0
4150,-1762,26754.0,29744.0
4151,2878,26746.0,29741.0
4152,2546,26743.0,29720.0
4153,419,26739.0,29703.0
4154,1634,26731.0,29692.0
4155,295,26724.0,29674.0
4156,1202,26718.0,29666.0
4157,1820,26714.0,29651.0
4158,1234,26717.0,29641.0
4159,2337,26713.0,29642.0
4160,3140,26717.0,29640.0
4161,5687,26712.0,29635.0
4162,3048,26709.0,29637.0
4163,7675,26706.0,29634.0
4164,5779,26710.0,29637.0
4165,8501,26710.0,29639.0
4166,9994,26705.0,29634.0
4167,9496,26710.0,29629.0
4168,9329,26708.0,29626.0
4169,9221,26707.0,29627.0
4170,5242,26704.0,29624.0
4171,4166,26703.0,29622.0
4172,4411,26700.0,29627.0
4173,641,26700.0,29627.0
4174,1419,26705.0,29626.0
4175,3119,26710.0,29627.0
4176,2363,26715.0,29634.0
4177,5074,26709.0,29636.0
4178,4892,26707.0,29642.0
4179,2183,26707.0,29645.0
4180,3317,26711.0,29651.0
4181,793,26717.0,29650.0
4182,-6533,26713.0,29652.0
4183,-5711,26712.0,29653.0
4184,-2524,26713.0,29659.0
4185,-1499,26716.0,29649.0
4186,-1937,26710.0,29650.0
4187,256,26711.0,29656.0
4188,1386,26713.0,29653.0
4189,182,26711.0,29653.0
4190,2105,26715.0,29655.0
4191,4213,26721.0,29654.0
4192,4400,26713.0,29658.0
4193,3240,26708.0,29661.0
4194,3361,26712.0,29665.0
4195,3410,26723.0,29670.0
4196,999,26716.0,29669.0
4197,-1181,26718.0,29675.0
4198,-125,26719.0,29683.0
4199,754,26726.0,29681.0
4200,1411,26722.0,29688.0
4201,-3203,26725.0,29697.0
4202,1144,26726.0,29700.0
4203,-485,26731.0,29705.0
4204,-44,26737.0,29715.0
4205,691,26738.0,29719.0
4206,399,26735.0,29719.0
4207,2306,26742.0,29726.0
4208,80,26743.0,29726.0
4209,2665,26740.0,29734.0
4210,1840,26744.0,29740.0
4211,5741,26744.0,29748.0
4212,4953,26750.0,29751.0
4213,1886,26750.0,29751.0
4214,1425,26754.0,29761.0
4215,1782,26755.0,29763.0
4216,-373,26759.0,29768.0
4217,-2157,26761.0,29774.0
4218,-15,26760.0,29778.0
4219,5948,26764.0,29783.0
4220,4502,26760.0,29788.0
4221,2805,26763.0,29789.0
4222,7786,26767.0,29798.0
4223,4839,26770.0,29800.0
4224,4552,26776.0,29803.0
4225,4278,26772.0,29806.0
4226,6549,26777.0,29813.0
4227,8694,26775.0,29815.0
4228,5163,26779.0,29824.0
4229,6263,26779.0,29831.0
4230,5326,26779.0,29833.0
4231,8011,26780.0,29836.0
4232,4230,26787.0,29838.0
4233,-114,26784.0,29840.0
4234,1751,26785.0,29835.0
4235,4154,26779.0,29828.0
4236,4508,26774.0,29814.0
4237,2845,26770.0,29795.0
4238,314,26762.0,29787.0
4239,7518,26758.0,29771.0
4240,11026,26753.0,29758.0
4241,5673,26750.0,29746.0
4242,-786,26745.0,29743.0
4243,-544,26745.0,29739.0
4244,4713,26749.0,29737.0
4245,1858,26745.0,29738.0
4246,5954,26742.0,29740.0
4247,8537,26744.0,29732.0
4248,8859,26743.0,29738.0
4249,9587,26746.0,29734.0
4250,5638,26743.0,29740.0
4251,6976,26744.0,29734.0
4252,6958,26740.0,29734.0
4253,6853,26743.0,29733.0
4254,7469,26737.0,29733.0
4255,8991,26736.0,29730.0
4256,9479,26738.0,29732.0
4257,5336,26736.0,29731.0
4258,3987,26742.0,29733.0
4259,1750,26739.0,29739.0
4260,-9,26747.0,29742.0
4261,374,26744.0,29748.0
4262,-3838,26746.0,29753.0
4263,-3290,26748.0,29748.0
4264,-1959,26749.0,29752.0
4265,-1592,26743.0,29754.0
4266,-2344,26748.0,29753.0
4267,51,26748.0,29754.0
4268,-168,26748.0,29753.0
4269,-1824,26745.0,29752.0
4270,-953,26747.0,29753.0
4271,-4475,26748.0,29754.0
4272,-1799,26745.0,29758.0
4273,-893,26752.0,29755.0
4274,-2983,26745.0,29761.0
4275,-6326,26744.0,29758.0
4276,-7857,26748.0,29765.0
4277,-7583,26755.0,29766.0
4278,-8468,26751.0,29773.0
4279,-5970,26750.0,29775.0
4280,-6390,26752.0,29777.0
4281,-4776,26755.0,29782.0
4282,-6499,26758.0,29784.0
4283,-2468,26756.0,29788.0
4284,1208,26755.0,29791.0
4285,-1368,26763.0,29796.0
4286,-2573,26759.0,29792.0
4287,188,26765.0,29801.0
4288,3300,26765.0,29809.0
4289,-1005,26763.0,29810.0
4290,-4587,26768.0,29816.0
4291,-543,26769.0,29817.0
4292,817,26772.0,29820.0
4293,-3438,26768.0,29832.0
4294,309,26772.0,29833.0
4295,433,26775.0,29832.0
4296,2718,26772.0,29834.0
4297,2934,26780.0,29845.0
4298,1616,26777.0,29844.0
4299,1881,26773.0,29850.0
4300,5844,26774.0,29853.0
4301,6543,26779.0,29852.0
4302,-1870,26784.0,29857.0
4303,-581,26779.0,29869.0
4304,1998,26786.0,29864.0
4305,4675,26782.0,29866.0
4306,210,26786.0,29867.0
4307,-321,26789.0,29871.0
4308,2203,26786.0,29885.0
4309,8049,26787.0,29877.0
4310,4269,26783.0,29870.0
4311,253,26785.0,29863.0
4312,-493,26783.0,29858.0
4313,3909,26773.0,29840.0
4314,6120,26776.0,29828.0
4315,4054,26766.0,29814.0
4316,6057,26760.0,29807.0
4317,12316,26761.0,29791.0
4318,15062,26752.0,29790.0
4319,8743,26754.0,29785.0
4320,3992,26748.0,29784.0
4321,2373,26746.0,29784.0
4322,4782,26754.0,29783.0
4323,9927,26750.0,29782.0
4324,7832,26749.0,29786.0
4325,4485,26747.0,29783.0
4326,14636,26752.0,29783.0
4327,10814,26751.0,29778.0
4328,12608,26752.0,29781.0
4329,9435,26746.0,29781.0
4330,9504,26742.0,29780.0
4331,14291,26743.0,29774.0
4332,11325,26749.0,29772.0
4333,8533,26747.0,29778.0
4334,2782,26746.0,29778.0
4335,3531,26744.0,29782.0
4336,4127,26751.0,29783.0
4337,6016,26748.0,29787.0
4338,6398,26748.0,29791.0
4339,9924,26752.0,29794.0
4340,9085,26756.0,29794.0
4341,2069,26746.0,29791.0
4342,4962,26749.0,29788.0
4343,1758,26752.0,29792.0
4344,824,26757.0,29788.0
4345,3694,26752.0,29785.0
4346,7743,26750.0,29783.0
4347,8938,26748.0,29786.0
4348,5483,26746.0,29789.0
4349,-701,26750.0,29790.0
4350,919,26747.0,29792.0
4351,10236,26752.0,29795.0
4352,3408,26748.0,29799.0
4353,2876,26757.0,29801.0
4354,2852,26754.0,29804.0
4355,2703,26754.0,29810.0
4356,1422,26756.0,29808.0
4357,5803,26760.0,29810.0
4358,5371,26760.0,29814.0
4359,8603,26765.0,29821.0
4360,7738,26760.0,29821.0
4361,4089,26758.0,29827.0
4362,-1105,26766.0,29827.0
4363,2209,26767.0,29833.0
4364,4150,26763.0,29836.0
4365,566,26765.0,29836.0
4366,3266,26762.0,29845.0
4367,7060,26772.0,29844.0
4368,5914,26768.0,29849.0
4369,3633,26766.0,29850.0
4370,2425,26770.0,29856.0
4371,3536,26769.0,29857.0
4372,1629,26776.0,29866.0
4373,1125,26779.0,29862.0
4374,7072,26778.0,29870.0
4375,6806,26779.0,29867.0
4376,9348,26777.0,29875.0
4377,15133,26783.0,29877.0
4378,12780,26783.0,29882.0
4379,16900,26781.0,29884.0
4380,10857,26787.0,29884.0
4381,11116,26790.0,29893.0
4382,17339,26790.0,29896.0
4383,9392,26788.0,29901.0
4384,11004,26792.0,29903.0
4385,8859,26788.0,29905.0
4386,13370,26793.0,29907.0
4387,16940,26792.0,29907.0
4388,12648,26794.0,29908.0
4389,9477,26785.0,29894.0
4390,14636,26784.0,29883.0
4391,10814,26779.0,29868.0
4392,12608,26776.0,29854.0
4393,9435,26766.0,29840.0
4394,9504,26760.0,29822.0
4395,14291,26755.0,29811.0
4396,11325,26757.0,29804.0
4397,8533,26755.0,29803.0
4398,2782,26757.0,29799.0
4399,3531,26753.0,29791.0
4400,4127,26747.0,29794.0
4401,6016,26748.0,29798.0
4402,6398,26749.0,29794.0
4403,9924,26749.0,29796.0
4404,9085,26746.0,29793.0
4405,2069,26742.0,29789.0
4406,1575,26744.0,29785.0
4407,2704,26745.0,29777.0
4408,184,26739.0,29778.0
4409,694,26739.0,29771.0
4410,6168,26732.0,29770.0
4411,5735,26735.0,29766.0
4412,2190,26739.0,29768.0
4413,419,26736.0,29768.0
4414,1828,26738.0,29774.0
4415,-2282,26740.0,29775.0
4416,-5681,26739.0,29778.0
4417,-2405,26742.0,29777.0
4418,-1475,26740.0,29780.0
4419,470,26739.0,29776.0
4420,-1905,26738.0,29774.0
4421,-3490,26739.0,29768.0
4422,-6460,26742.0,29773.0
4423,-2389,26735.0,29772.0
4424,-6398,26736.0,29772.0
4425,-8034,26734.0,29772.0
4426,-9952,26735.0,29768.0
4427,-490,26741.0,29766.0
4428,-9010,26738.0,29768.0
4429,-3883,26739.0,29774.0
4430,-5173,26737.0,29778.0
4431,-2579,26741.0,29778.0
4432,2641,26739.0,29777.0
4433,-8374,26739.0,29782.0
4434,3373,26741.0,29780.0
4435,-9573,26743.0,29781.0
4436,1370,26745.0,29787.0
4437,-4536,26746.0,29793.0
4438,-8203,26748.0,29795.0
4439,-6541,26750.0,29800.0
4440,-6159,26747.0,29798.0
4441,-1183,26751.0,29801.0
4442,-12115,26752.0,29806.0
4443,-6728,26749.0,29809.0
4444,-6670,26751.0,29809.0
4445,-6611,26754.0,29812.0
4446,-3427,26758.0,29814.0
4447,-9477,26752.0,29821.0
4448,-8039,26755.0,29824.0
4449,-9917,26756.0,29823.0
4450,-4547,26763.0,29827.0
4451,-9517,26758.0,29837.0
4452,-9831,26763.0,29833.0
4453,-9520,26763.0,29847.0
4454,-5589,26763.0,29842.0
4455,-7071,26765.0,29840.0
4456,-12298,26769.0,29853.0
4457,936,26767.0,29855.0
4458,-6084,26767.0,29856.0
4459,-192,26774.0,29852.0
4460,-1528,26778.0,29861.0
4461,-783,26770.0,29865.0
4462,6699,26775.0,29861.0
4463,3829,26779.0,29869.0
4464,5798,26781.0,29876.0
4465,-2099,26776.0,29882.0
4466,7743,26780.0,29886.0
4467,7195,26782.0,29885.0
4468,3648,26787.0,29889.0
4469,2942,26787.0,29894.0
4470,7187,26790.0,29900.0
4471,4756,26785.0,29902.0
4472,7823,26789.0,29907.0
4473,1498,26795.0,29913.0
4474,15265,26793.0,29910.0
4475,5845,26790.0,29909.0
4476,3068,26793.0,29895.0
4477,6850,26785.0,29884.0
4478,2681,26778.0,29870.0
4479,9485,26768.0,29858.0
4480,1460,26770.0,29833.0
4481,9009,26762.0,29822.0
4482,-1880,26754.0,29801.0
4483,4867,26753.0,29786.0
4484,3489,26746.0,29783.0
4485,-5014,26742.0,29773.0
4486,1969,26744.0,29767.0
4487,4660,26746.0,29767.0
4488,7683,26737.0,29767.0
4489,4365,26739.0,29771.0
4490,1383,26740.0,29764.0
4491,-1904,26744.0,29765.0
4492,-1176,26737.0,29757.0
4493,8363,26738.0,29756.0
4494,-7772,26736.0,29754.0
4495,651,26731.0,29751.0
4496,806,26733.0,29747.0
4497,3259,26730.0,29741.0
4498,-1566,26730.0,29745.0
4499,-2327,26729.0,29738.0
4500,2666,26733.0,29735.0
4501,-6259,26726.0,29737.0
4502,5981,26729.0,29738.0
4503,-2671,26729.0,29739.0
4504,-1489,26740.0,29742.0
4505,-1955,26731.0,29740.0
4506,-7033,26731.0,29743.0
4507,3850,26730.0,29736.0
4508,-5206,26731.0,29744.0
4509,-1197,26726.0,29738.0
4510,-5816,26724.0,29734.0
4511,-710,26729.0,29734.0
4512,308,26725.0,29731.0
4513,1495,26724.0,29734.0
